Data from 190624_Kr_33.5K_no_film_FLMS138901_12-46-34-566.txt Node
Date: Mon Jun 24 12:46:34 EDT 2019
User: pSAM
Spectrometer: FLMS13890
Trigger mode: 0
Integration Time (sec): 5.000000E-3
Scans to average: 1000
Electric dark correction enabled: true
Nonlinearity correction enabled: false
Boxcar width: 0
XAxis mode: Wavelengths
Number of Pixels in Spectrum: 2048
>>>>>Begin Spectral Data<<<<<
342.097	-59.83
342.483	-59.83
342.868	-59.83
343.254	-98.92
343.639	-101.51
344.025	-102.25
344.41	-99.74
344.796	-91.95
345.181	-80.3
345.567	-68.85
345.952	-53.32
346.337	-36.3
346.722	-18.98
347.107	1.07
347.493	20.23
347.878	38.27
348.263	58.02
348.648	79.43
349.033	98.27
349.418	117.15
349.802	139.25
350.187	153.87
350.572	173.92
350.957	238.94
351.342	384.03
351.726	411.03
352.111	428.99
352.495	441.04
352.88	455.13
353.264	467.34
353.649	482.07
354.033	492.24
354.418	502.87
354.802	509.65
355.186	517.91
355.57	528.51
355.955	538.13
356.339	541.36
356.723	543.97
357.107	550.57
357.491	586.98
357.875	557.53
358.259	559.31
358.643	563.29
359.026	564.52
359.41	567.63
359.794	568.96
360.178	569.19
360.561	569.67
360.945	567.25
361.329	569.52
361.712	571.06
362.096	573.08
362.479	569.49
362.862	571.26
363.246	571.49
363.629	569.82
364.012	569.63
364.396	568.71
364.779	570.67
365.162	570.56
365.545	571.12
365.928	572.14
366.311	571.52
366.694	575.11
367.077	579.07
367.46	580.81
367.843	581.26
368.226	580.78
368.608	582.46
368.991	582.79
369.374	583.52
369.756	584.87
370.139	586.99
370.521	584.17
370.904	587.82
371.286	588.36
371.669	590.15
372.051	590.72
372.433	594.34
372.816	596.08
373.198	595.38
373.58	599.41
373.962	599.68
374.344	602.94
374.726	606.44
375.108	608.24
375.49	613.41
375.872	616.53
376.254	614.37
376.636	616.81
377.018	616.58
377.399	617.62
377.781	616.85
378.163	618.05
378.544	616.26
378.926	620.52
379.307	626.37
379.689	636.4
380.07	644.28
380.452	648.78
380.833	650.56
381.214	653.3
381.596	651.61
381.977	658.42
382.358	661.93
382.739	674.34
383.12	677.81
383.501	678.14
383.882	672.82
384.263	672.81
384.644	676.96
385.025	681.67
385.406	684.66
385.787	687.57
386.167	688.33
386.548	695
386.929	700.08
387.309	707.67
387.69	716.85
388.07	728.69
388.451	730.1
388.831	740.3
389.211	729.75
389.592	721.4
389.972	721.47
390.352	725.15
390.733	728.83
391.113	731.16
391.493	732.17
391.873	745.21
392.253	751.08
392.633	766.12
393.013	770.51
393.393	778.68
393.772	775.68
394.152	779.52
394.532	781.53
394.912	787.69
395.291	783.28
395.671	786.01
396.05	778.13
396.43	781.17
396.809	780.38
397.189	791.7
397.568	798.2
397.948	804.03
398.327	815.95
398.706	825.09
399.085	824.48
399.465	824.39
399.844	819.2
400.223	810.99
400.602	814.31
400.981	813.42
401.36	814.07
401.739	813.25
402.117	824.29
402.496	815.24
402.875	820.88
403.254	830.53
403.632	829.13
404.011	836.98
404.39	850.06
404.768	850.99
405.147	869.8
405.525	880.18
405.903	883.74
406.282	888.17
406.66	877
407.038	868.37
407.417	864.91
407.795	865.96
408.173	870.5
408.551	873.22
408.929	878.52
409.307	882.99
409.685	889.75
410.063	895.9
410.441	894.67
410.818	898.54
411.196	899.73
411.574	911.85
411.952	916.74
412.329	930.1
412.707	948.62
413.084	960.57
413.462	961.61
413.839	967.35
414.217	954.11
414.594	955.01
414.971	957.17
415.349	962.86
415.726	967.76
416.103	959.4
416.48	961.98
416.857	969.76
417.234	982.87
417.611	983.85
417.988	986.17
418.365	976.71
418.742	982.63
419.119	988.86
419.495	994.63
419.872	997.35
420.249	1020.66
420.625	1030.79
421.002	1046.95
421.379	1056.04
421.755	1076.19
422.131	1090.64
422.508	1092.5
422.884	1098.68
423.26	1103.75
423.637	1121.43
424.013	1094.96
424.389	1081.66
424.765	1074.34
425.141	1082.17
425.517	1080.23
425.893	1075.4
426.269	1070.03
426.645	1080.25
427.021	1114.85
427.397	1131.33
427.772	1148.22
428.148	1138.47
428.524	1134.93
428.899	1122.74
429.275	1140.99
429.651	1158.34
430.026	1181.25
430.401	1196
430.777	1191.33
431.152	1184.91
431.527	1180.6
431.903	1180.93
432.278	1173.54
432.653	1173.08
433.028	1182.62
433.403	1213.75
433.778	1249.44
434.153	1251.38
434.528	1241.45
434.903	1235.98
435.278	1242.21
435.653	1254.24
436.027	1258
436.402	1267.29
436.777	1276.05
437.151	1280.86
437.526	1292.24
437.9	1295.36
438.275	1316.08
438.649	1308.57
439.023	1324.91
439.398	1321.04
439.772	1321.06
440.146	1329.54
440.52	1349.55
440.895	1375.04
441.269	1416.62
441.643	1441.9
442.017	1439.67
442.391	1428.39
442.765	1427.04
443.138	1414.25
443.512	1437.21
443.886	1449.87
444.26	1451.64
444.633	1464.28
445.007	1464.47
445.38	1464.41
445.754	1467.83
446.127	1475.16
446.501	1472.86
446.874	1475.06
447.248	1471.95
447.621	1485.53
447.994	1477.42
448.367	1484.35
448.741	1490.72
449.114	1486.53
449.487	1502.73
449.86	1510.53
450.233	1508.83
450.606	1504.69
450.978	1500.61
451.351	1514.58
451.724	1505.03
452.097	1507.43
452.469	1516.32
452.842	1519.63
453.215	1523.55
453.587	1522.69
453.96	1536.22
454.332	1537.48
454.704	1552.68
455.077	1560.24
455.449	1580.94
455.821	1569.55
456.194	1591.61
456.566	1597.5
456.938	1610.61
457.31	1633.27
457.682	1662.35
458.054	1671.71
458.426	1691.22
458.798	1707.87
459.17	1711.85
459.541	1707.87
459.913	1692.84
460.285	1692.11
460.656	1691.31
461.028	1685.67
461.399	1708.64
461.771	1706.09
462.142	1723.34
462.514	1746.36
462.885	1771.6
463.256	1811.89
463.628	1837.22
463.999	1859.88
464.37	1903.47
464.741	1911.95
465.112	1894.83
465.483	1908.2
465.854	1920.99
466.225	1909.93
466.596	1904.86
466.967	1928.38
467.338	1937.05
467.708	1969.76
468.079	1977.9
468.45	1992.35
468.82	1995.36
469.191	1997.67
469.561	1998.98
469.932	2017.1
470.302	2005.29
470.673	2043.1
471.043	2064.49
471.413	2086.39
471.783	2119.56
472.154	2155.48
472.524	2182.2
472.894	2243.03
473.264	2268.78
473.634	2274.85
474.004	2275.6
474.374	2313.95
474.743	2331.56
475.113	2384.1
475.483	2414.95
475.853	2450.72
476.222	2477.56
476.592	2532.09
476.961	2510.84
477.331	2525.85
477.7	2564.4
478.07	2640.74
478.439	2655.99
478.808	2678.79
479.178	2690.21
479.547	2748.84
479.916	2772.66
480.285	2844.54
480.654	2856.92
481.023	2899.31
481.392	2927.02
481.761	2962.64
482.13	2992.95
482.499	3032.46
482.867	3051.62
483.236	3130.04
483.605	3199.92
483.973	3241.13
484.342	3320.06
484.71	3373.43
485.079	3506.81
485.447	3985.39
485.816	4439.7
486.184	4649.51
486.552	4281.37
486.921	3890.41
487.289	3697.36
487.657	3680.71
488.025	3661.26
488.393	3673.44
488.761	3708.04
489.129	3766.06
489.497	3804.53
489.865	3881.57
490.233	3918.76
490.6	3976.8
490.968	3971.82
491.336	4001.43
491.703	4019.7
492.071	4060.06
492.438	4111.71
492.806	4163.85
493.173	4221.62
493.541	4227.11
493.908	4221.88
494.275	4240.04
494.642	4256.1
495.01	4270.59
495.377	4296.45
495.744	4330.64
496.111	4428.28
496.478	4505.67
496.845	4506.15
497.211	4502.32
497.578	4514.27
497.945	4527.93
498.312	4596.73
498.678	4667.07
499.045	4741.48
499.412	4730.34
499.778	4733.48
500.145	4745.01
500.511	4757.03
500.878	4819.9
501.244	4882.79
501.61	4912.31
501.976	4912.67
502.343	4943.89
502.709	5011.07
503.075	5023.89
503.441	5029.68
503.807	5048.81
504.173	5032.53
504.539	5048.6
504.905	5095.55
505.27	5159.29
505.636	5191.82
506.002	5250.2
506.367	5252.04
506.733	5272.09
507.099	5250.77
507.464	5277.73
507.829	5296.07
508.195	5352.45
508.56	5381.28
508.926	5379.98
509.291	5386.77
509.656	5408.29
510.021	5432.53
510.386	5478.09
510.751	5501.75
511.116	5540.12
511.481	5566.11
511.846	5601.8
512.211	5608.42
512.576	5631.15
512.941	5634.11
513.305	5671.59
513.67	5716.62
514.035	5726.82
514.399	5762.78
514.764	5749.89
515.128	5773.38
515.493	5814.51
515.857	5849.94
516.221	5856.9
516.585	5902.05
516.95	5942.16
517.314	5945.25
517.678	5920.09
518.042	5935.65
518.406	5993.03
518.77	6003.81
519.134	6036.46
519.498	6113.07
519.862	6125.42
520.225	6098.24
520.589	6149.85
520.953	6190.31
521.316	6223.18
521.68	6235.96
522.043	6279.71
522.407	6267.79
522.77	6309.17
523.134	6388.58
523.497	6362.83
523.86	6397.28
524.223	6398.49
524.587	6427.69
524.95	6426.27
525.313	6481.17
525.676	6524.24
526.039	6557.29
526.402	6583.43
526.765	6651.72
527.127	6704.84
527.49	6760.21
527.853	6794.12
528.215	6790.86
528.578	6879.05
528.941	6877.71
529.303	6935.93
529.666	6948.56
530.028	6974.12
530.39	7001.84
530.753	7012.98
531.115	7060.89
531.477	7106.18
531.839	7136.42
532.201	7165.66
532.564	7249.95
532.926	7299.09
533.287	7386.45
533.649	7440.04
534.011	7503.47
534.373	7557.58
534.735	7593.08
535.097	7629.42
535.458	7691.21
535.82	7734.65
536.181	7721.31
536.543	7722.49
536.904	7696.93
537.266	7812.84
537.627	7884.39
537.988	7924.55
538.35	7960.03
538.711	8000.41
539.072	8035.83
539.433	8028.04
539.794	8098.4
540.155	8108.64
540.516	8144.32
540.877	8183.1
541.238	8254.85
541.599	8313.02
541.959	8342.66
542.32	8438.76
542.681	8470.11
543.041	8477.66
543.402	8533.87
543.762	8623.94
544.123	8650.23
544.483	8687.39
544.844	8731.91
545.204	8756.45
545.564	8767.73
545.924	8806.09
546.284	8820.77
546.644	8840.07
547.004	8896.36
547.364	8960.15
547.724	9019.1
548.084	9056.14
548.444	9149.64
548.804	9139.88
549.164	9166.38
549.523	9162.93
549.883	9181.78
550.242	9208.06
550.602	9209.11
550.961	9223.5
551.321	9190.71
551.68	9288.12
552.04	9334.37
552.399	9418.13
552.758	9409.38
553.117	9382.45
553.476	9494.34
553.835	9546.49
554.194	9569.16
554.553	9521.33
554.912	9552.25
555.271	9606.5
555.63	9663.98
555.989	9774.26
556.347	9779.08
556.706	9780.2
557.065	9770.88
557.423	9811.65
557.782	9873.57
558.14	9879.11
558.499	9907.93
558.857	9924
559.215	9965.75
559.573	10032.97
559.932	10082.66
560.29	10161.06
560.648	10178.88
561.006	10212.04
561.364	10219.28
561.722	10237.5
562.08	10286.51
562.438	10273.27
562.795	10333.93
563.153	10378.12
563.511	10406.3
563.868	10436.58
564.226	10480.19
564.583	10511.32
564.941	10455.46
565.298	10556.4
565.656	10549.17
566.013	10606.48
566.37	10694.42
566.727	10812.39
567.085	10946.27
567.442	11005.24
567.799	11106.48
568.156	11124.58
568.513	11268.1
568.87	11409.26
569.226	11643.28
569.583	11868.19
569.94	11951.33
570.297	11948.34
570.653	11890.36
571.01	12069.19
571.366	12314.48
571.723	12417.59
572.079	12381.31
572.436	12348
572.792	12374.91
573.148	12632.19
573.505	12836.46
573.861	13088.52
574.217	13055.38
574.573	13089.12
574.929	13029.66
575.285	13055.87
575.641	13100.11
575.997	13184.84
576.352	13255.34
576.708	13284.72
577.064	13480
577.42	13798.91
577.775	14010.15
578.131	14028.72
578.486	13793.75
578.842	13540.67
579.197	13653.47
579.552	13861.89
579.908	14175.57
580.263	14289.36
580.618	14117.24
580.973	14343.58
581.328	15016.8
581.683	15702.9
582.038	15751.37
582.393	14985.66
582.748	14367.72
583.103	13870.69
583.458	13684.91
583.812	13845.48
584.167	14195.29
584.522	14525
584.876	14703.19
585.231	14745.1
585.585	14788.39
585.939	14478.93
586.294	14265.01
586.648	14204.07
587.002	14244.41
587.356	14517.71
587.711	14833.06
588.065	14868.35
588.419	14872.34
588.773	14671.51
589.127	14348.95
589.48	14289.86
589.834	14117.5
590.188	14168.41
590.542	14207.67
590.895	14079.52
591.249	14195.21
591.603	14122.23
591.956	14204.73
592.309	14415.81
592.663	14658.48
593.016	15033.56
593.369	15133.89
593.723	14925.08
594.076	14813.01
594.429	14855.3
594.782	15092.29
595.135	15311.9
595.488	15310.31
595.841	15028.47
596.194	14760.9
596.547	14624.66
596.899	14598.8
597.252	14662.97
597.605	14820.13
597.957	14810.07
598.31	14824.81
598.662	15028.28
599.015	15067.89
599.367	15117.68
599.719	15067.1
600.072	15126.46
600.424	15246.12
600.776	15498.79
601.128	15494.39
601.48	15489.87
601.832	15488.82
602.184	15497.62
602.536	15551.6
602.888	15717.68
603.24	15966.35
603.592	15990.42
603.943	15790.63
604.295	15598.25
604.646	15471.9
604.998	15508.7
605.349	15605.44
605.701	15734.58
606.052	15738.6
606.404	15638.58
606.755	15655.31
607.106	15740.44
607.457	15679.94
607.808	15695.03
608.159	15623.91
608.51	15616.23
608.861	15644.89
609.212	15559.48
609.563	15776.76
609.914	15911.95
610.265	15968.89
610.615	16038.83
610.966	15981.97
611.316	16102.57
611.667	16143.67
612.017	16141.5
612.368	15930.88
612.718	16182.7
613.068	16289.64
613.419	16322.78
613.769	16333.4
614.119	16437.36
614.469	16526.08
614.819	16273.58
615.169	16279.26
615.519	16448.53
615.869	16411.05
616.219	16294.82
616.568	16160.25
616.918	16151.61
617.268	16245.67
617.617	16347.71
617.967	16415.51
618.316	16315.62
618.666	16283.28
619.015	16303.21
619.364	16370.05
619.714	16608.01
620.063	16660.33
620.412	16658.37
620.761	16580.63
621.11	16610.72
621.459	16482.73
621.808	16674.51
622.157	16851.34
622.506	16914.46
622.855	16987.89
623.203	17061.17
623.552	17002.08
623.901	16975.25
624.249	16891.03
624.598	16988.58
624.946	16929.82
625.295	16826.18
625.643	16856.82
625.991	17015.71
626.34	16915.14
626.688	16814.54
627.036	16999.6
627.384	17039.27
627.732	17150.37
628.08	17120.72
628.428	17063.7
628.776	17079.28
629.124	17098.35
629.471	17115.66
629.819	17187.6
630.167	17132.4
630.514	17112.14
630.862	17059.43
631.209	17105.48
631.557	17148.11
631.904	17127.27
632.251	17217.32
632.599	17184.61
632.946	17252.92
633.293	17373.47
633.64	17375.55
633.987	17401.77
634.334	17336.56
634.681	17281.52
635.028	17397.18
635.375	17377.02
635.722	17454.1
636.068	17458.88
636.415	17582.78
636.762	17652.17
637.108	17629.37
637.455	17527.14
637.801	17614.37
638.147	17777.75
638.494	17757.08
638.84	17885.6
639.186	17798.72
639.532	17799.41
639.878	17775.26
640.225	17777.47
640.571	17801.91
640.916	17752.55
641.262	17750.39
641.608	17754.36
641.954	17860.55
642.3	17917.06
642.645	17877.99
642.991	17911.26
643.337	18093.35
643.682	18138.4
644.028	18082.14
644.373	18130.49
644.718	18239.72
645.064	18232.65
645.409	18229.88
645.754	18314
646.099	18349.57
646.444	18364.54
646.789	18478.54
647.134	18450.15
647.479	18487.63
647.824	18549.74
648.169	18564.29
648.513	18608.45
648.858	18571.17
649.203	18655.22
649.547	18702.34
649.892	18644.64
650.236	18679.98
650.581	18656.3
650.925	18617.05
651.269	18549.31
651.613	18691.25
651.958	18659.45
652.302	18653.14
652.646	18660.24
652.99	18612.16
653.334	18771.16
653.678	18799.23
654.022	18903.87
654.365	18847.59
654.709	18915.05
655.053	19051.85
655.396	20087.01
655.74	30465.79
656.083	42419.71
656.427	46930.61
656.77	40647.86
657.114	27434.68
657.457	22104.24
657.8	20232.61
658.143	19522.49
658.486	19311.73
658.83	19284.33
659.173	19172.9
659.516	19227.78
659.858	19250.12
660.201	19176.9
660.544	19087.57
660.887	19042.43
661.229	19116.66
661.572	18979.44
661.915	18955.44
662.257	18905.82
662.6	19058.3
662.942	19068.04
663.284	18902.46
663.627	18922.4
663.969	18900.79
664.311	18942.32
664.653	18957.85
664.995	19002.83
665.337	19059.11
665.679	18976.44
666.021	18913.39
666.363	18810.08
666.705	18970.17
667.046	18922.18
667.388	18842.67
667.73	18903.92
668.071	19052.22
668.413	19074.63
668.754	19131.23
669.096	19138.48
669.437	19300.68
669.778	19098.47
670.119	19082.29
670.461	19042.23
670.802	19172.62
671.143	19148.15
671.484	19284.09
671.825	19469.78
672.165	19534.94
672.506	19522.67
672.847	19426.47
673.188	19444.99
673.528	19348.22
673.869	19264.04
674.21	19234.91
674.55	19168.55
674.89	19115.26
675.231	19165.45
675.571	19177.94
675.911	19143.26
676.252	19266.79
676.592	19460.82
676.932	19259.4
677.272	19228.61
677.612	19338.65
677.952	19445.21
678.292	19378.37
678.631	19295.36
678.971	19306.03
679.311	19435.61
679.651	19473.67
679.99	19526.35
680.33	19446.94
680.669	19374.27
681.009	19254
681.348	19215.84
681.687	19235.24
682.026	19242.33
682.366	19131.19
682.705	19083.26
683.044	19073.96
683.383	19092.51
683.722	19179.45
684.061	19045.32
684.4	19122.71
684.738	19188.16
685.077	19213.26
685.416	19262.65
685.754	19306.04
686.093	19264.09
686.431	19399.95
686.77	19305.37
687.108	19372.49
687.447	19356.05
687.785	19522.28
688.123	19490.37
688.461	19510.5
688.799	19374.21
689.137	19336.31
689.475	19422.62
689.813	19248.91
690.151	19291.78
690.489	19242.75
690.827	19172.92
691.164	19263.2
691.502	19338.6
691.84	19352.66
692.177	19486.7
692.515	19478.36
692.852	19300.13
693.189	19365.2
693.527	19383.66
693.864	19359.41
694.201	19350.97
694.538	19196.63
694.875	19056.48
695.212	18991.86
695.549	19078.16
695.886	19027.89
696.223	19029.96
696.56	19255.31
696.897	19258.26
697.233	19398.58
697.57	19445.34
697.906	19567.48
698.243	19440.62
698.579	19291.81
698.916	19357.3
699.252	19334.02
699.588	19325.64
699.924	19422.33
700.261	19379.94
700.597	19352.43
700.933	19409
701.269	19283.83
701.605	19412.29
701.941	19237.04
702.276	19195.22
702.612	19231.5
702.948	19341.4
703.283	19369.83
703.619	19285.22
703.954	19251.74
704.29	19181.55
704.625	19267.55
704.961	19210.5
705.296	19317.63
705.631	19218.92
705.966	19179.48
706.301	19136.81
706.637	19060.04
706.972	19178.68
707.306	19188.03
707.641	19179.65
707.976	19116.75
708.311	19108.83
708.646	19124.83
708.98	19077.02
709.315	19122.37
709.649	19081.64
709.984	19151.11
710.318	19035.44
710.653	19033.51
710.987	18963.36
711.321	19003.9
711.655	19038.52
711.989	19073.71
712.324	19182.58
712.658	19039.52
712.992	19053.93
713.325	18973.12
713.659	18971.26
713.993	18889.52
714.327	18865.62
714.66	18831.62
714.994	18725.55
715.328	18782.13
715.661	18857.34
715.994	18958.67
716.328	18695.82
716.661	18746.98
716.994	18834.01
717.328	18668.45
717.661	18623.05
717.994	18636.22
718.327	18699.39
718.66	18682.08
718.993	18720.97
719.325	18670.34
719.658	18627.68
719.991	18670.69
720.324	18724.1
720.656	18592.92
720.989	18545.89
721.321	18594.89
721.654	18730.32
721.986	18707.89
722.318	18580.86
722.651	18542.95
722.983	18495.44
723.315	18617.19
723.647	18505.38
723.979	18404.91
724.311	18330.64
724.643	18367.82
724.975	18367.15
725.307	18387.23
725.638	18482.19
725.97	18343.75
726.302	18420.5
726.633	18258.05
726.965	18324.78
727.296	18184.4
727.628	18091.52
727.959	18055.54
728.29	18130.71
728.621	18030.33
728.952	18095.78
729.284	17995.35
729.615	18077.77
729.945	18073.85
730.276	18077.51
730.607	18116.6
730.938	18110.77
731.269	18137.5
731.599	18162.02
731.93	18116.17
732.261	17887.93
732.591	17824.51
732.922	17842.37
733.252	17792.89
733.582	17757.35
733.912	17805.31
734.243	17798.1
734.573	17764.45
734.903	17865.02
735.233	17615.33
735.563	17545.17
735.893	17558.21
736.223	17473.5
736.552	17411.67
736.882	17361.81
737.212	17339.29
737.541	17423.79
737.871	17464.41
738.2	17304.69
738.53	17070.3
738.859	16919.24
739.188	16943.36
739.518	17026.45
739.847	17081.76
740.176	16879.28
740.505	16804.86
740.834	16829.74
741.163	16751.12
741.492	16617.82
741.821	16557.2
742.15	16491.14
742.478	16531.89
742.807	16423.53
743.136	16528.52
743.464	16426.2
743.793	16313.27
744.121	16270.58
744.449	16240.3
744.778	16329.9
745.106	16407.73
745.434	16303.86
745.762	16062.17
746.09	16006.98
746.418	15996.98
746.746	15903.71
747.074	15786.79
747.402	15805.24
747.73	15757.59
748.057	15890.44
748.385	15770.45
748.712	15651.52
749.04	15544.28
749.367	15654.49
749.695	15676.4
750.022	15775.23
750.349	15712.63
750.677	15716.43
751.004	15647.19
751.331	15645.08
751.658	15695.33
751.985	15672.01
752.312	15439.08
752.639	15318.26
752.966	15288.02
753.292	15159.73
753.619	15305.61
753.946	15251.18
754.272	15164.3
754.599	15123.4
754.925	15082.27
755.251	14995.29
755.578	14885.49
755.904	14749.03
756.23	14677.44
756.556	14807.38
756.882	14942.82
757.208	14845.53
757.534	14808.71
757.86	14830.05
758.186	14956.41
758.512	14974.48
758.838	14936.09
759.163	14830.22
759.489	14717.22
759.814	14512.13
760.14	14514.24
760.465	14568.81
760.791	14351.21
761.116	14222.91
761.441	14229.18
761.766	14383.36
762.092	14255.33
762.417	14050.86
762.742	14044.94
763.066	14027.07
763.391	14082.45
763.716	14197.56
764.041	14299.45
764.366	14183.7
764.69	14009.07
765.015	14058.97
765.339	14110.88
765.664	14170.72
765.988	14067.25
766.312	13809.26
766.637	13595.97
766.961	13509.34
767.285	13561.57
767.609	13514.5
767.933	13350.04
768.257	13341.7
768.581	13258.31
768.905	13414.09
769.229	13457.96
769.552	13466.52
769.876	13504.11
770.2	13291.6
770.523	13218.4
770.847	13186.41
771.17	13184.35
771.493	13173.57
771.817	13132.57
772.14	12954.07
772.463	12783.37
772.786	12683.6
773.109	12658.33
773.432	12737.53
773.755	12589.78
774.078	12490.66
774.401	12427.75
774.724	12389.3
775.046	12434.21
775.369	12407.15
775.692	12377.77
776.014	12323.76
776.336	12269.71
776.659	12338.96
776.981	12325.75
777.303	12213.83
777.626	12048.77
777.948	12038.64
778.27	12133.13
778.592	12242.1
778.914	12228.7
779.236	12152.74
779.557	12094.38
779.879	12116.92
780.201	12070.92
780.523	12091.66
780.844	11961.09
781.166	11989.49
781.487	11989.31
781.809	12008.25
782.13	12071.94
782.451	12077.84
782.772	12163.03
783.094	12116.11
783.415	12154.21
783.736	12126.38
784.057	12267.03
784.378	12247.98
784.698	12170.95
785.019	12187.51
785.34	12003.54
785.661	12185.22
785.981	12350.39
786.302	12465.12
786.622	12464.08
786.943	12391.89
787.263	12211.52
787.583	12240.87
787.903	12356.94
788.224	12411.97
788.544	12391.53
788.864	12237.87
789.184	12333.1
789.504	12405.35
789.824	12528.98
790.143	12565.86
790.463	12432.46
790.783	12286.22
791.102	12278.29
791.422	12399.47
791.741	12424.8
792.061	12443.62
792.38	12461.87
792.699	12311.47
793.019	12313.85
793.338	12248.28
793.657	12176.67
793.976	12325.55
794.295	12263.76
794.614	12284.19
794.933	12161.56
795.252	12129.02
795.57	12112.25
795.889	12115.98
796.208	12062.09
796.526	11805.25
796.845	11718.71
797.163	11621.21
797.482	11760.06
797.8	11851.57
798.118	11831.9
798.436	11832.75
798.754	11758.57
799.073	11778.45
799.391	11892.39
799.708	12021.14
800.026	12003.97
800.344	11924.62
800.662	11850.34
800.98	11775.65
801.297	11772.52
801.615	11809.47
801.932	11843.03
802.25	11686.76
802.567	11511.06
802.884	11428.61
803.202	11330.33
803.519	11323.75
803.836	11375.21
804.153	11301.73
804.47	11238.44
804.787	11128.44
805.104	11076.29
805.421	11150.93
805.737	11215.03
806.054	11184.9
806.371	11129.58
806.687	11032.93
807.004	10962.34
807.32	10981.05
807.637	11006.94
807.953	11019.09
808.269	11017.65
808.585	10945.06
808.902	10757.83
809.218	10692.64
809.534	10761.03
809.85	10816.28
810.165	10759.8
810.481	10736.45
810.797	10576.32
811.113	10446.8
811.428	10417.25
811.744	10462.43
812.059	10530.51
812.375	10538.25
812.69	10402.6
813.006	10249.83
813.321	10232.21
813.636	10290.61
813.951	10421.52
814.266	10469.72
814.581	10424.46
814.896	10266.64
815.211	10070.91
815.526	10022.34
815.841	10001.95
816.155	10099.96
816.47	10099.64
816.784	10106.07
817.099	10012.96
817.413	9899.32
817.728	9920.37
818.042	9918.14
818.356	9913.2
818.67	9804.37
818.985	9742.85
819.299	9626.15
819.613	9620.97
819.926	9528.69
820.24	9624.37
820.554	9696.2
820.868	9696.91
821.182	9542.36
821.495	9459.27
821.809	9302.51
822.122	9293.41
822.436	9361.14
822.749	9334.75
823.062	9261.89
823.376	9182.94
823.689	9063.92
824.002	9078.49
824.315	9058.45
824.628	9117.81
824.941	9167.04
825.254	9073.72
825.566	8990.24
825.879	9012.85
826.192	8997.66
826.504	8999.15
826.817	9097.64
827.129	9183.6
827.442	9123.59
827.754	9056.68
828.066	8983.44
828.379	8884.48
828.691	8944.74
829.003	8901.06
829.315	8906.7
829.627	8810.35
829.939	8638.64
830.251	8595.77
830.562	8529.46
830.874	8547.94
831.186	8586.31
831.497	8622.79
831.809	8539.72
832.12	8413.79
832.432	8314.1
832.743	8300.68
833.054	8347.68
833.365	8391.09
833.676	8389.58
833.988	8302.32
834.299	8223.26
834.61	8212.88
834.92	8199.72
835.231	8255.21
835.542	8264.66
835.853	8207.24
836.163	8121.37
836.474	8041.1
836.784	7958.49
837.095	7918.62
837.405	7949.85
837.715	8052.78
838.026	8058.39
838.336	7985.62
838.646	7888.84
838.956	7752.18
839.266	7729.65
839.576	7711.31
839.886	7755.69
840.195	7795.6
840.505	7764.53
840.815	7721.95
841.124	7587.71
841.434	7515.4
841.743	7510.14
842.053	7558.89
842.362	7567.15
842.671	7550.52
842.981	7507.28
843.29	7393.09
843.599	7380.81
843.908	7378.17
844.217	7379.35
844.526	7455.98
844.835	7492.36
845.143	7415.87
845.452	7299.27
845.761	7244.89
846.069	7140.27
846.378	7181.12
846.686	7197.68
846.995	7213.77
847.303	7206.29
847.611	7178.33
847.919	7070.09
848.227	7017.38
848.535	6942.95
848.843	6922.61
849.151	6936.94
849.459	7005.94
849.767	6941.42
850.075	6862.54
850.382	6752.06
850.69	6706.2
850.998	6712.6
851.305	6746.45
851.612	6820.11
851.92	6832.91
852.227	6774.08
852.534	6714.5
852.841	6666.51
853.148	6663.26
853.455	6758.11
853.762	6772.36
854.069	6753.32
854.376	6669.16
854.683	6571.39
854.99	6453.76
855.296	6354.42
855.603	6332.74
855.909	6376.03
856.216	6446.82
856.522	6456.68
856.828	6404.79
857.135	6299.86
857.441	6241.28
857.747	6199.3
858.053	6230.86
858.359	6168.7
858.665	6205.19
858.971	6182.59
859.276	6150.32
859.582	6057.61
859.888	5980.62
860.193	5917.24
860.499	5894.75
860.804	5915.4
861.11	5888.49
861.415	5871.11
861.72	5790.49
862.026	5663.53
862.331	5616.42
862.636	5594.11
862.941	5618.27
863.246	5620.12
863.551	5681.56
863.855	5674.96
864.16	5621.1
864.465	5535.75
864.769	5478.39
865.074	5485.87
865.378	5486.72
865.683	5489.12
865.987	5538.3
866.291	5468.62
866.596	5434.85
866.9	5369.42
867.204	5329.37
867.508	5275.67
867.812	5269.47
868.116	5300.64
868.42	5296.74
868.723	5265.05
869.027	5205.89
869.331	5161.75
869.634	5153.38
869.938	5128.78
870.241	5162.03
870.544	5193
870.848	5205.93
871.151	5165.69
871.454	5109.08
871.757	5071.12
872.06	5029.05
872.363	4969.23
872.666	4967.02
872.969	4979.59
873.272	5006.68
873.574	5000.79
873.877	4956.54
874.18	4854.6
874.482	4759.45
874.785	4735.57
875.087	4671.61
875.389	4691.58
875.692	4685.84
875.994	4660.92
876.296	4630.88
876.598	4581.41
876.9	4513.91
877.202	4470.84
877.504	4454.99
877.805	4457.02
878.107	4478.48
878.409	4444.21
878.71	4456.84
879.012	4405.66
879.313	4332.57
879.615	4343.62
879.916	4326.72
880.217	4342.46
880.518	4380.82
880.82	4423.11
881.121	4380.54
881.422	4315.39
881.723	4241.93
882.023	4165.82
882.324	4123.83
882.625	4095.79
882.926	4113.16
883.226	4156.89
883.527	4128.89
883.827	4109.19
884.128	4054.7
884.428	4007.72
884.728	3945.41
885.028	3930
885.328	3922.45
885.629	3906.14
885.929	3922.04
886.228	3913.54
886.528	3846.1
886.828	3783.64
887.128	3755.09
887.427	3724.54
887.727	3726.03
888.027	3730.59
888.326	3767.28
888.625	3781.5
888.925	3716.67
889.224	3665.71
889.523	3590.02
889.822	3543.77
890.121	3543.53
890.42	3542.23
890.719	3557.58
891.018	3541.9
891.317	3563.2
891.616	3554.1
891.914	3497.83
892.213	3462.96
892.512	3441.57
892.81	3452.25
893.108	3479.81
893.407	3524.52
893.705	3549.17
894.003	3535.39
894.301	3496.57
894.599	3455.14
894.897	3433.07
895.195	3410.83
895.493	3408.13
895.791	3456.85
896.089	3494.39
896.386	3500.74
896.684	3509.46
896.981	3475.88
897.279	3428.02
897.576	3417.18
897.874	3372.91
898.171	3391.76
898.468	3409.44
898.765	3434.65
899.062	3475.16
899.359	3458.94
899.656	3415.87
899.953	3363.4
900.25	3327.11
900.547	3288.91
900.843	3278.01
901.14	3298.55
901.436	3331.85
901.733	3354.92
902.029	3365.84
902.325	3356
902.622	3307.36
902.918	3286.61
903.214	3263.91
903.51	3226.8
903.806	3233.93
904.102	3244.65
904.398	3279.19
904.694	3291.74
904.989	3311.41
905.285	3270.03
905.581	3206.04
905.876	3187.89
906.171	3162.17
906.467	3169.09
906.762	3206.01
907.057	3226.08
907.353	3248.15
907.648	3237.03
907.943	3215.74
908.238	3169.24
908.533	3117.07
908.827	3090.71
909.122	3088.53
909.417	3107.32
909.711	3138.85
910.006	3142.06
910.301	3098.3
910.595	3085.64
910.889	3077.56
911.184	3021.72
911.478	3002.27
911.772	2993.51
912.066	2985.64
912.36	2991.84
912.654	2992.93
912.948	2982.26
913.242	2986.53
913.536	2932.06
913.829	2893.66
914.123	2873.48
914.416	2844.94
914.71	2861.93
915.003	2899.08
915.297	2894.51
915.59	2870.64
915.883	2850.41
916.176	2833.65
916.469	2802.37
916.762	2775.75
917.055	2732.68
917.348	2706.26
917.641	2718.05
917.934	2718.42
918.226	2706.46
918.519	2688.99
918.811	2664.47
919.104	2628.14
919.396	2571.53
919.689	2528.23
919.981	2502.05
920.273	2490.77
920.565	2497.8
920.857	2486.61
921.149	2488.47
921.441	2482.2
921.733	2457.04
922.025	2414.02
922.316	2378.39
922.608	2359.36
922.9	2334.17
923.191	2328.81
923.483	2344.88
923.774	2333.14
924.065	2336.03
924.357	2321.2
924.648	2291.18
924.939	2273.07
925.23	2254.64
925.521	2239.59
925.812	2227.09
926.102	2225.09
926.393	2223.48
926.684	2228.03
926.975	2215.77
927.265	2189.5
927.556	2163.88
927.846	2123.98
928.136	2095.82
928.427	2079.12
928.717	2078.7
929.007	2076.08
929.297	2064.74
929.587	2055.31
929.877	2040.41
930.167	2019.95
930.457	1982.92
930.746	1942.4
931.036	1919.6
931.325	1890.91
931.615	1881.51
931.904	1889.72
932.194	1878.76
932.483	1873.59
932.772	1867.5
933.062	1851.17
933.351	1824.75
933.64	1786.28
933.929	1770.98
934.218	1750.11
934.506	1738.36
934.795	1744.6
935.084	1747.91
935.372	1746.79
935.661	1742.59
935.949	1722.21
936.238	1697.64
936.526	1661.51
936.815	1628.78
937.103	1618.88
937.391	1610.46
937.679	1607.15
937.967	1603.35
938.255	1600.36
938.543	1598.84
938.831	1586.9
939.118	1573.33
939.406	1551.43
939.693	1525.28
939.981	1506.18
940.268	1499.22
940.556	1489.98
940.843	1485.8
941.13	1473.43
941.418	1463.31
941.705	1452.6
941.992	1444.63
942.279	1428.72
942.566	1409.28
942.852	1395.82
943.139	1385.87
943.426	1373.77
943.712	1376.1
943.999	1372.9
944.285	1374.22
944.572	1360.41
944.858	1346.67
945.144	1333.71
945.431	1312.71
945.717	1294.74
946.003	1282.86
946.289	1269.41
946.575	1264.19
946.861	1262.58
947.146	1265
947.432	1263.16
947.718	1251.88
948.003	1241.05
948.289	1228.12
948.574	1206.92
948.86	1189.03
949.145	1176.81
949.43	1167.4
949.715	1163.73
950	1160.46
950.285	1151.68
950.57	1151.47
950.855	1138.63
951.14	1127.76
951.425	1116.04
951.709	1101.49
951.994	1091.44
952.278	1080.56
952.563	1072.83
952.847	1067.94
953.132	1066.93
953.416	1065.89
953.7	1060.18
953.984	1053.84
954.268	1045.86
954.552	1034.41
954.836	1026.85
955.12	1017.42
955.404	1010.85
955.687	1002.98
955.971	1000.91
956.254	994.65
956.538	991.34
956.821	986
957.105	976.91
957.388	969.57
957.671	953.66
957.954	945.26
958.237	930.6
958.52	916.2
958.803	910.53
959.086	903.04
959.369	899.74
959.652	891.41
959.934	893.17
960.217	888.01
960.499	888.82
960.782	879.86
961.064	873.99
961.346	866.19
961.629	858.26
961.911	853.03
962.193	845.65
962.475	844.42
962.757	838.19
963.039	834.17
963.32	829.43
963.602	818.31
963.884	815.33
964.165	810.63
964.447	810.07
964.728	802.49
965.01	797.98
965.291	792.47
965.572	787.06
965.853	781.94
966.134	775.5
966.415	768.93
966.696	762.53
966.977	752.57
967.258	747.41
967.539	735.72
967.819	732.81
968.1	724.79
968.38	721.34
968.661	719.12
968.941	714.79
969.222	716.59
969.502	714.44
969.782	713.04
970.062	708.95
970.342	705.33
970.622	698.11
970.902	691.16
971.182	681.89
971.462	674.24
971.741	670.9
972.021	666.52
972.3	664.27
972.58	655.97
972.859	654.75
973.138	649.84
973.418	644.48
973.697	638.87
973.976	631.23
974.255	627.28
974.534	620.25
974.813	617.66
975.092	611.8
975.37	611.97
975.649	611.78
975.928	609.25
976.206	604.69
976.485	600.59
976.763	597.91
977.041	592.83
977.32	590.38
977.598	581.87
977.876	580.05
978.154	574.84
978.432	573.4
978.71	570.65
978.988	569.97
979.265	566.89
979.543	567.9
979.821	561.84
980.098	558.34
980.376	555.14
980.653	547.99
980.93	543.51
981.208	543.39
981.485	542.67
981.762	538.3
982.039	538.93
982.316	535.4
982.593	533.83
982.87	531.95
983.146	527.25
983.423	522.28
983.7	521.1
983.976	516.64
984.253	510.79
984.529	506.58
984.805	505.27
985.082	500.88
985.358	498.86
985.634	496.16
985.91	491.03
986.186	493.03
986.462	490.2
986.738	486.43
987.013	486.45
987.289	482.47
987.565	484.3
987.84	476.37
988.116	474.47
988.391	471.3
988.666	467.19
988.942	467.15
989.217	467.46
989.492	464.42
989.767	464.46
990.042	460.24
990.317	457.52
990.592	456.64
990.866	452.69
991.141	450.61
991.416	447.83
991.69	447.66
991.964	446.36
992.239	443.58
992.513	442.78
992.787	441.27
993.062	440.13
993.336	435.67
993.61	436.64
993.884	435.68
994.158	433.44
994.431	429.76
994.705	425.83
994.979	428.44
995.252	423.65
995.526	423.82
995.799	421.11
996.073	419.18
996.346	419.63
996.619	419.2
996.892	417.96
997.165	416.37
997.438	415.24
997.711	415.08
997.984	412.69
998.257	410.63
998.53	409.8
998.802	408.18
999.075	407.4
999.347	408.29
999.62	406.41
999.892	404.92
1000.165	404.1
1000.437	402.27
1000.709	402.02
1000.981	400.57
1001.253	398.61
1001.525	398.3
1001.797	398.79
1002.068	398.53
1002.34	395.76
1002.612	395.77
1002.883	394.31
1003.155	393.94
1003.426	390.49
1003.698	392.06
1003.969	389.32
1004.24	390.06
1004.511	388.43
1004.782	389.77
1005.053	386.97
1005.324	386.76
1005.595	383.52
1005.866	385.59
1006.136	383.15
1006.407	383.96
1006.678	383.32
1006.948	380.61
1007.218	381.06
1007.489	379.48
1007.759	380.74
1008.029	380.3
1008.299	377.9
1008.569	379.49
1008.839	379.86
1009.109	378.48
1009.379	377.47
1009.649	376.01
1009.918	375.59
1010.188	375.19
1010.458	374.22
1010.727	373.46
1010.996	373.79
1011.266	372.9
1011.535	373.95
1011.804	371.28
1012.073	369.74
1012.342	369.14
1012.611	372.61
1012.88	368.51
1013.149	369.09
1013.417	369.55
1013.686	370.75
1013.955	369.27
1014.223	368.92
1014.492	365.23
1014.76	368.3
1015.028	367.8
1015.296	367.4
1015.565	368.05
1015.833	366
1016.101	364.64
1016.368	366.98
1016.636	366.26
1016.904	363.83
1017.172	365.94
1017.439	363.34
1017.707	362.89
1017.974	363.96
1018.242	364.33
1018.509	363.47
1018.776	362.48
1019.044	361.99
1019.311	362.1
1019.578	361.83
1019.845	361.59
1020.112	362.58
1020.378	362.58
1020.645	362.58
