Data from 190703_Ar_22K_film_FLMS138901_13-18-13-163.txt Node
Date: Wed Jul 03 13:18:13 EDT 2019
User: pSAM
Spectrometer: FLMS13890
Trigger mode: 0
Integration Time (sec): 5.000000E-3
Scans to average: 1000
Electric dark correction enabled: true
Nonlinearity correction enabled: false
Boxcar width: 0
XAxis mode: Wavelengths
Number of Pixels in Spectrum: 2048
>>>>>Begin Spectral Data<<<<<
342.097	-61.41
342.483	-61.41
342.868	-61.41
343.254	-101.58
343.639	-105.17
344.025	-102.5
344.41	-99.46
344.796	-89.83
345.181	-81.48
345.567	-66.4
345.952	-53.14
346.337	-36.59
346.722	-19.41
347.107	3
347.493	20.29
347.878	39.86
348.263	56.97
348.648	77.72
349.033	96.66
349.418	116.73
349.802	137.57
350.187	153.4
350.572	170.2
350.957	186.4
351.342	205.59
351.726	219.77
352.111	234.23
352.495	247.65
352.88	258.88
353.264	272.46
353.649	282.53
354.033	292.05
354.418	301.32
354.802	308.19
355.186	313.64
355.57	318.43
355.955	325.37
356.339	329.17
356.723	332.99
357.107	337.26
357.491	350.91
357.875	337.59
358.259	340.95
358.643	342.09
359.026	341.59
359.41	340.04
359.794	337.59
360.178	339.46
360.561	339.26
360.945	336.58
361.329	335.53
361.712	334.62
362.096	334.93
362.479	331.23
362.862	329.14
363.246	327.93
363.629	327.44
364.012	325.38
364.396	321.44
364.779	321.33
365.162	320.11
365.545	318.68
365.928	316.75
366.311	315.5
366.694	315.32
367.077	315.6
367.46	312.45
367.843	311.96
368.226	313.76
368.608	312.71
368.991	309.67
369.374	310.13
369.756	310.98
370.139	310.47
370.521	310.31
370.904	308.26
371.286	309.58
371.669	309.43
372.051	311.98
372.433	310.71
372.816	312.13
373.198	312.3
373.58	312.57
373.962	313.47
374.344	313.69
374.726	313.42
375.108	313.08
375.49	315.72
375.872	315.52
376.254	316.59
376.636	317.26
377.018	316.5
377.399	317.64
377.781	317.54
378.163	317.8
378.544	318.94
378.926	318.17
379.307	321.38
379.689	319.27
380.07	320.91
380.452	322.61
380.833	323.3
381.214	322.07
381.596	320.9
381.977	321.17
382.358	323.61
382.739	321.74
383.12	322.7
383.501	324.66
383.882	325.17
384.263	324.67
384.644	323.91
385.025	326.72
385.406	327.67
385.787	328.03
386.167	327.81
386.548	328.69
386.929	328.14
387.309	327.21
387.69	329.38
388.07	328.73
388.451	326.9
388.831	328.5
389.211	330.09
389.592	330.76
389.972	330
390.352	332.01
390.733	330.95
391.113	330.68
391.493	330.95
391.873	332.06
392.253	333.06
392.633	332.48
393.013	333.12
393.393	332.19
393.772	334.78
394.152	335.5
394.532	332.18
394.912	336.2
395.291	333.88
395.671	333.79
396.05	334.08
396.43	336.06
396.809	336.77
397.189	334.47
397.568	334.79
397.948	333.09
398.327	337.25
398.706	337.37
399.085	336.9
399.465	337.55
399.844	337.03
400.223	339.45
400.602	337.87
400.981	338.17
401.36	337.27
401.739	338.37
402.117	338.96
402.496	340.57
402.875	340.7
403.254	339.46
403.632	338.5
404.011	340.61
404.39	340.89
404.768	342.41
405.147	343.11
405.525	344.23
405.903	342.36
406.282	345.35
406.66	341.01
407.038	342.01
407.417	343.28
407.795	343.86
408.173	345.49
408.551	345.33
408.929	345.67
409.307	344.9
409.685	344.15
410.063	343.65
410.441	344.15
410.818	346.79
411.196	346.59
411.574	345.67
411.952	345.61
412.329	345.47
412.707	346.52
413.084	347.29
413.462	346.65
413.839	348.62
414.217	348.03
414.594	349.3
414.971	348.98
415.349	348.51
415.726	347.21
416.103	348.23
416.48	350.35
416.857	348.34
417.234	350.38
417.611	350.89
417.988	350.08
418.365	349.74
418.742	350.9
419.119	349.87
419.495	349.92
419.872	350.97
420.249	359.45
420.625	351.61
421.002	353.03
421.379	349.96
421.755	351.27
422.131	353.98
422.508	353.15
422.884	352.56
423.26	353.08
423.637	354.12
424.013	354.32
424.389	353.43
424.765	355.87
425.141	353.07
425.517	354.43
425.893	357.04
426.269	354.38
426.645	355.15
427.021	354.42
427.397	356.08
427.772	354.53
428.148	356.5
428.524	356.02
428.899	356.4
429.275	355.3
429.651	356.92
430.026	357.95
430.401	355.91
430.777	355.78
431.152	355.84
431.527	359.02
431.903	357.94
432.278	358.6
432.653	357.72
433.028	358.42
433.403	358.64
433.778	359.67
434.153	357.93
434.528	359.28
434.903	357.73
435.278	361.91
435.653	367.53
436.027	365.94
436.402	364.59
436.777	363.26
437.151	362.06
437.526	360.74
437.9	362.15
438.275	360.91
438.649	359.77
439.023	361.22
439.398	361.99
439.772	361.62
440.146	361.54
440.52	361.18
440.895	362.93
441.269	359.99
441.643	362.15
442.017	361.66
442.391	364.6
442.765	362.9
443.138	362.29
443.512	361.34
443.886	362.06
444.26	360.57
444.633	363.46
445.007	363.98
445.38	360.54
445.754	365.61
446.127	363.34
446.501	363.7
446.874	362.15
447.248	362.67
447.621	363.35
447.994	361.22
448.367	363.51
448.741	365.13
449.114	364.49
449.487	363.94
449.86	362.38
450.233	362.38
450.606	363.06
450.978	364.94
451.351	366.41
451.724	366.21
452.097	366.73
452.469	364.29
452.842	365.96
453.215	363.37
453.587	365.16
453.96	364.2
454.332	366.67
454.704	365.55
455.077	365.65
455.449	364.38
455.821	366.16
456.194	365.35
456.566	363.29
456.938	367.21
457.31	366.75
457.682	366.33
458.054	366.59
458.426	364.72
458.798	367.54
459.17	368.23
459.541	365.94
459.913	365.49
460.285	366.07
460.656	367.3
461.028	367.22
461.399	365.97
461.771	365.98
462.142	366.26
462.514	365.93
462.885	367.93
463.256	367.53
463.628	367.51
463.999	366.22
464.37	366.79
464.741	368.68
465.112	367.99
465.483	368.99
465.854	365.67
466.225	368.71
466.596	367.93
466.967	367.85
467.338	367.87
467.708	368.93
468.079	369.67
468.45	367.23
468.82	367.2
469.191	368.67
469.561	367.33
469.932	368.99
470.302	367.31
470.673	369.53
471.043	368.33
471.413	368.41
471.783	370.77
472.154	366.99
472.524	369.56
472.894	368.39
473.264	368.82
473.634	368.88
474.004	369.28
474.374	369.94
474.743	367.69
475.113	369.7
475.483	369.23
475.853	369.98
476.222	367.4
476.592	369.9
476.961	369.81
477.331	369.38
477.7	369.93
478.07	369.69
478.439	371.53
478.808	370.44
479.178	368.49
479.547	370.78
479.916	372.13
480.285	371.41
480.654	367.16
481.023	371.31
481.392	368.45
481.761	370.46
482.13	370.01
482.499	370.7
482.867	372.28
483.236	373.04
483.605	369.52
483.973	373.46
484.342	372.31
484.71	373.64
485.079	374.87
485.447	374.62
485.816	374.8
486.184	375.64
486.552	375.86
486.921	376.49
487.289	375.35
487.657	376.1
488.025	374.94
488.393	374.06
488.761	372.86
489.129	375.65
489.497	375.33
489.865	374.93
490.233	375.85
490.6	376.26
490.968	373.97
491.336	376.35
491.703	375.92
492.071	376.53
492.438	375.27
492.806	373.76
493.173	374.25
493.541	376.59
493.908	376.83
494.275	373.76
494.642	375.71
495.01	374.82
495.377	371.85
495.744	373.55
496.111	373.35
496.478	376.74
496.845	376.73
497.211	375.04
497.578	374.31
497.945	376.35
498.312	374.8
498.678	375.07
499.045	374.39
499.412	373.7
499.778	374.36
500.145	374.36
500.511	373.66
500.878	374.04
501.244	372.25
501.61	371.65
501.976	372.38
502.343	374.48
502.709	372.89
503.075	371.95
503.441	373.61
503.807	374.08
504.173	372.39
504.539	372.83
504.905	372.01
505.27	371.28
505.636	374.69
506.002	373.62
506.367	372.77
506.733	373.81
507.099	372.85
507.464	372.5
507.829	374.12
508.195	373.31
508.56	373.71
508.926	374.87
509.291	371.82
509.656	373.29
510.021	372
510.386	374.04
510.751	372.88
511.116	371.58
511.481	373
511.846	375.56
512.211	373.06
512.576	372.62
512.941	373.14
513.305	374.57
513.67	372.75
514.035	373.57
514.399	372.25
514.764	373.25
515.128	374.42
515.493	374.1
515.857	372.79
516.221	372.79
516.585	371.22
516.95	371.91
517.314	373.01
517.678	372.64
518.042	372.42
518.406	373.94
518.77	373.3
519.134	374.05
519.498	371.66
519.862	373.4
520.225	373.57
520.589	374.85
520.953	373.34
521.316	372.68
521.68	372.41
522.043	371.29
522.407	371.76
522.77	373.1
523.134	374.38
523.497	373.67
523.86	372.49
524.223	373.09
524.587	373.75
524.95	373.88
525.313	372.28
525.676	374.14
526.039	375.11
526.402	374.14
526.765	372.2
527.127	372.17
527.49	371.98
527.853	373.36
528.215	375.11
528.578	375.08
528.941	372.46
529.303	375.19
529.666	373.28
530.028	372.98
530.39	372.83
530.753	373.48
531.115	374.09
531.477	372.18
531.839	374.93
532.201	374.91
532.564	373.82
532.926	373.48
533.287	372.95
533.649	373.28
534.011	373.77
534.373	372.31
534.735	373.49
535.097	372.21
535.458	373.03
535.82	371.87
536.181	374.9
536.543	374.15
536.904	373.04
537.266	375.97
537.627	373.58
537.988	375.25
538.35	376.8
538.711	376.83
539.072	377.33
539.433	379.2
539.794	381.37
540.155	381.35
540.516	381.86
540.877	384.62
541.238	386.36
541.599	395.06
541.959	398.58
542.32	405.85
542.681	409.61
543.041	412.5
543.402	414.22
543.762	413.71
544.123	413.59
544.483	411.61
544.844	412.66
545.204	408.39
545.564	411.9
545.924	417.73
546.284	416.38
546.644	412.97
547.004	401.94
547.364	393.65
547.724	388.46
548.084	385.79
548.444	386.11
548.804	384.03
549.164	384.89
549.523	384
549.883	384.74
550.242	384.12
550.602	383.57
550.961	382.93
551.321	380.71
551.68	381.04
552.04	381.59
552.399	380.72
552.758	380.36
553.117	380.85
553.476	381.68
553.835	378.75
554.194	376.81
554.553	378.65
554.912	377.19
555.271	375.35
555.63	375.29
555.989	374.71
556.347	373.73
556.706	373.71
557.065	374.26
557.423	375.12
557.782	373.66
558.14	374.68
558.499	373.73
558.857	374.22
559.215	375.44
559.573	374.12
559.932	375.38
560.29	374.96
560.648	373.17
561.006	375.17
561.364	372.13
561.722	372.85
562.08	374.87
562.438	374.99
562.795	374.97
563.153	374.92
563.511	374.59
563.868	377.45
564.226	373.29
564.583	373.79
564.941	375.06
565.298	373.08
565.656	374.68
566.013	373.94
566.37	375.56
566.727	376.5
567.085	374.3
567.442	375.05
567.799	374.66
568.156	375.25
568.513	375.67
568.87	375.75
569.226	375.24
569.583	375.65
569.94	374.88
570.297	373.93
570.653	375.27
571.01	375
571.366	373.5
571.723	374.72
572.079	375.6
572.436	375.17
572.792	375.81
573.148	377.28
573.505	374.52
573.861	376.87
574.217	378.54
574.573	376.19
574.929	377.38
575.285	378.25
575.641	377.36
575.997	378.05
576.352	376.39
576.708	380.85
577.064	378.82
577.42	380.79
577.775	380.51
578.131	379.04
578.486	378.77
578.842	380.44
579.197	381.78
579.552	382.75
579.908	382.23
580.263	384.57
580.618	384.95
580.973	383.58
581.328	381.06
581.683	382.59
582.038	386.24
582.393	385.84
582.748	384.92
583.103	384.68
583.458	385.3
583.812	386.6
584.167	385.55
584.522	386.26
584.876	386.11
585.231	385.99
585.585	383.76
585.939	385.28
586.294	384.05
586.648	383.38
587.002	386.46
587.356	389.8
587.711	390.29
588.065	389.26
588.419	389.19
588.773	385.62
589.127	385.91
589.48	383.59
589.834	383.5
590.188	381.54
590.542	381.96
590.895	382.56
591.249	381.89
591.603	380.21
591.956	380.98
592.309	381.2
592.663	384.31
593.016	383.54
593.369	384.14
593.723	381.08
594.076	383.86
594.429	383.35
594.782	380.31
595.135	379.39
595.488	381.31
595.841	379.67
596.194	378.86
596.547	378.02
596.899	377.65
597.252	378.53
597.605	379
597.957	376.95
598.31	377.62
598.662	379.16
599.015	379.37
599.367	381.13
599.719	378.54
600.072	380.34
600.424	381.82
600.776	380.52
601.128	379.28
601.48	377.9
601.832	380.1
602.184	378.77
602.536	377.3
602.888	377.91
603.24	375.8
603.592	377.75
603.943	377.36
604.295	376.77
604.646	378.57
604.998	376.94
605.349	377.59
605.701	377.44
606.052	376.38
606.404	376.96
606.755	379.84
607.106	378.89
607.457	379.17
607.808	377.2
608.159	377.11
608.51	379.34
608.861	378.43
609.212	379.35
609.563	382.66
609.914	386.74
610.265	392.03
610.615	403.84
610.966	418.89
611.316	432.7
611.667	442.89
612.017	440.84
612.368	428.56
612.718	418.12
613.068	408.47
613.419	404.68
613.769	401.09
614.119	395.5
614.469	395.77
614.819	393.31
615.169	390.74
615.519	390.69
615.869	388.47
616.219	386.24
616.568	384.66
616.918	384.76
617.268	382.22
617.617	383.99
617.967	382.72
618.316	383.27
618.666	381.85
619.015	384.45
619.364	382.06
619.714	383.98
620.063	384.04
620.412	384.45
620.761	385.78
621.11	384.54
621.459	382.6
621.808	384.73
622.157	383.75
622.506	383.44
622.855	383.83
623.203	381.26
623.552	380.95
623.901	382.41
624.249	380.94
624.598	381.78
624.946	381.36
625.295	380.2
625.643	380.58
625.991	381.75
626.34	380.81
626.688	379.49
627.036	380.54
627.384	381.01
627.732	379.45
628.08	376.56
628.428	380.87
628.776	379.36
629.124	379.62
629.471	379.45
629.819	380.72
630.167	380.08
630.514	381.67
630.862	382.86
631.209	383.97
631.557	384.54
631.904	382.66
632.251	382.32
632.599	381.4
632.946	380.92
633.293	377.67
633.64	376.21
633.987	377.55
634.334	378.99
634.681	377.39
635.028	375.53
635.375	375.68
635.722	377.66
636.068	376.63
636.415	376.89
636.762	376.4
637.108	376.46
637.455	377.82
637.801	375.97
638.147	377.87
638.494	376.57
638.84	376.35
639.186	374.83
639.532	373.74
639.878	378.5
640.225	377.41
640.571	373.42
640.916	375.91
641.262	376.35
641.608	375.38
641.954	376.37
642.3	377.41
642.645	377.25
642.991	377.73
643.337	375.75
643.682	377.29
644.028	375.59
644.373	376.06
644.718	376
645.064	375.06
645.409	375.81
645.754	378.19
646.099	375.54
646.444	375.01
646.789	376.26
647.134	376.7
647.479	376.3
647.824	375.22
648.169	377.71
648.513	376.39
648.858	378.92
649.203	376.97
649.547	375.9
649.892	377.58
650.236	376.61
650.581	376.94
650.925	378.47
651.269	378.64
651.613	379.26
651.958	378.57
652.302	377.6
652.646	376.46
652.99	378.71
653.334	377.34
653.678	375.37
654.022	378.84
654.365	377.19
654.709	379.45
655.053	376.71
655.396	378.63
655.74	385.34
656.083	396.74
656.427	402.15
656.77	398.97
657.114	390.84
657.457	383.59
657.8	379.58
658.143	377.39
658.486	376.69
658.83	375.82
659.173	376.35
659.516	377.59
659.858	376.8
660.201	377.59
660.544	376.96
660.887	377.92
661.229	377.01
661.572	377.55
661.915	378.15
662.257	378.01
662.6	377.76
662.942	377.09
663.284	377.75
663.627	378.94
663.969	376.14
664.311	377.37
664.653	377.75
664.995	374.79
665.337	375.58
665.679	375.28
666.021	376.25
666.363	377.65
666.705	375.34
667.046	377.29
667.388	374.95
667.73	374.39
668.071	375.2
668.413	375.13
668.754	377.79
669.096	376.71
669.437	377.09
669.778	378.2
670.119	375.89
670.461	376.53
670.802	374.3
671.143	376.85
671.484	374.95
671.825	379.04
672.165	374.47
672.506	376.84
672.847	376.37
673.188	376.44
673.528	376.73
673.869	376.01
674.21	374.93
674.55	375.13
674.89	376.54
675.231	376.68
675.571	374.48
675.911	376.15
676.252	376.21
676.592	376.18
676.932	376.88
677.272	376.69
677.612	375.39
677.952	375.23
678.292	377.7
678.631	375.81
678.971	375.93
679.311	375.72
679.651	378.31
679.99	375.04
680.33	374.94
680.669	377.28
681.009	377.83
681.348	378.48
681.687	374.8
682.026	375.71
682.366	377.49
682.705	377.86
683.044	374.99
683.383	375.42
683.722	376.06
684.061	374.72
684.4	377.29
684.738	375.03
685.077	374.98
685.416	374.85
685.754	376.2
686.093	375.67
686.431	375.2
686.77	377.48
687.108	376.09
687.447	377.4
687.785	376.91
688.123	376.72
688.461	376.73
688.799	374.34
689.137	375.43
689.475	375.57
689.813	374.45
690.151	374.89
690.489	374.98
690.827	375.58
691.164	375.39
691.502	375.51
691.84	374.25
692.177	375.68
692.515	376.1
692.852	374.84
693.189	373.88
693.527	375.38
693.864	375.92
694.201	374.77
694.538	376.18
694.875	375.58
695.212	374.08
695.549	374.63
695.886	373.11
696.223	375.39
696.56	375.33
696.897	375.44
697.233	376
697.57	374.52
697.906	374.48
698.243	375
698.579	374.41
698.916	375.74
699.252	375.59
699.588	373.53
699.924	374.1
700.261	372.58
700.597	373.95
700.933	375.4
701.269	371.69
701.605	375.58
701.941	372.83
702.276	375.48
702.612	375.11
702.948	375.53
703.283	374.81
703.619	374.54
703.954	374.62
704.29	374.68
704.625	374.12
704.961	375.21
705.296	377.27
705.631	374.69
705.966	375.19
706.301	376.54
706.637	374.88
706.972	376.24
707.306	377.21
707.641	378.01
707.976	377.28
708.311	376.78
708.646	377.29
708.98	377.04
709.315	377.98
709.649	378.53
709.984	378.68
710.318	376.34
710.653	376.96
710.987	376.4
711.321	373.64
711.655	375.68
711.989	375.06
712.324	375.19
712.658	373.5
712.992	376
713.325	377.63
713.659	374.94
713.993	372.8
714.327	374.49
714.66	375.4
714.994	374.03
715.328	374.33
715.661	374.4
715.994	373.69
716.328	372.95
716.661	374.25
716.994	372.14
717.328	373.7
717.661	375.16
717.994	370.77
718.327	374.96
718.66	372.99
718.993	375.21
719.325	375.28
719.658	374.81
719.991	375.02
720.324	374.57
720.656	373.26
720.989	373.14
721.321	370.13
721.654	375.13
721.986	373.87
722.318	373.78
722.651	374.72
722.983	372.31
723.315	371.94
723.647	372.06
723.979	374.54
724.311	373.56
724.643	373.3
724.975	374.44
725.307	374.47
725.638	372.07
725.97	374.82
726.302	373.32
726.633	373.75
726.965	373.81
727.296	373.19
727.628	374.25
727.959	373.38
728.29	373.26
728.621	370.53
728.952	372.12
729.284	371.55
729.615	370.97
729.945	373.92
730.276	374.49
730.607	371.39
730.938	373.06
731.269	371.95
731.599	371.68
731.93	372.1
732.261	373.3
732.591	371.78
732.922	370.67
733.252	372.7
733.582	369.85
733.912	373.06
734.243	371.95
734.573	371.84
734.903	372.67
735.233	375.44
735.563	372.25
735.893	370.33
736.223	370.25
736.552	372.22
736.882	370.49
737.212	371.71
737.541	371.36
737.871	372
738.2	372.59
738.53	371.14
738.859	370.83
739.188	370.73
739.518	370.7
739.847	372.01
740.176	370.97
740.505	372.67
740.834	371.02
741.163	369.7
741.492	369.83
741.821	372.99
742.15	370.9
742.478	371.27
742.807	372.28
743.136	369.75
743.464	372.29
743.793	371.75
744.121	371.87
744.449	370.21
744.778	369.45
745.106	372.99
745.434	368.55
745.762	370.82
746.09	370.1
746.418	370.45
746.746	367.94
747.074	368.91
747.402	371.82
747.73	369.66
748.057	369.45
748.385	370.35
748.712	368.67
749.04	369.37
749.367	366.77
749.695	368.82
750.022	369.46
750.349	372.12
750.677	370.76
751.004	374.32
751.331	369.52
751.658	369.54
751.985	368.56
752.312	369.91
752.639	369.47
752.966	367.34
753.292	368.35
753.619	370.35
753.946	369.53
754.272	369.79
754.599	370.63
754.925	369.82
755.251	367.64
755.578	367.71
755.904	368.54
756.23	369.57
756.556	367.87
756.882	368.37
757.208	370.25
757.534	367.38
757.86	368.2
758.186	368
758.512	369.35
758.838	366.7
759.163	367.73
759.489	366.12
759.814	366.09
760.14	367.24
760.465	370.54
760.791	365.78
761.116	368.49
761.441	367.23
761.766	369.45
762.092	367.82
762.417	367.33
762.742	367.85
763.066	369.02
763.391	367.6
763.716	368.88
764.041	367.16
764.366	367.97
764.69	368.02
765.015	368.51
765.339	369.16
765.664	368.26
765.988	367.91
766.312	366.37
766.637	366.15
766.961	368
767.285	368.44
767.609	366.98
767.933	364.04
768.257	366.02
768.581	367.19
768.905	367.89
769.229	366.32
769.552	368.15
769.876	365.79
770.2	368.07
770.523	368.07
770.847	367.11
771.17	367.36
771.493	366.42
771.817	367.41
772.14	365.38
772.463	366.26
772.786	366.3
773.109	366.78
773.432	367.76
773.755	364.4
774.078	366.22
774.401	362.6
774.724	365.71
775.046	366.06
775.369	367.18
775.692	366.14
776.014	364.55
776.336	367.08
776.659	366.85
776.981	364.04
777.303	365.8
777.626	363.86
777.948	365.89
778.27	365.52
778.592	364.27
778.914	364.68
779.236	365.85
779.557	364.1
779.879	362.53
780.201	364.89
780.523	366.68
780.844	365.69
781.166	364.2
781.487	366.43
781.809	365.78
782.13	367.2
782.451	364.22
782.772	365.93
783.094	366.14
783.415	365.44
783.736	363.36
784.057	364.47
784.378	364.38
784.698	365.86
785.019	366.26
785.34	364.23
785.661	363.27
785.981	363.03
786.302	364.43
786.622	364.98
786.943	364.61
787.263	366.14
787.583	364.48
787.903	365.03
788.224	363.09
788.544	364.69
788.864	364.03
789.184	365.79
789.504	366.24
789.824	365.99
790.143	365.03
790.463	364.12
790.783	364.74
791.102	364.25
791.422	364.27
791.741	364.63
792.061	364.58
792.38	364.17
792.699	362.78
793.019	366.24
793.338	364.46
793.657	363.03
793.976	364.58
794.295	367.03
794.614	366.18
794.933	365.18
795.252	363.33
795.57	363.9
795.889	365.88
796.208	364.86
796.526	362.96
796.845	365.58
797.163	364.59
797.482	365.15
797.8	362.94
798.118	365.52
798.436	364.83
798.754	362.08
799.073	363.32
799.391	362.74
799.708	363.87
800.026	364.48
800.344	363.99
800.662	361.91
800.98	363.66
801.297	361.68
801.615	363.02
801.932	364.27
802.25	364.21
802.567	363.89
802.884	363.47
803.202	365
803.519	363.24
803.836	362.48
804.153	363.1
804.47	363.84
804.787	362.91
805.104	362.7
805.421	364.39
805.737	363.49
806.054	362.64
806.371	362.58
806.687	363.36
807.004	362.39
807.32	364.42
807.637	363.83
807.953	363.78
808.269	364.19
808.585	361.66
808.902	364.7
809.218	362.56
809.534	362.77
809.85	362.92
810.165	363.26
810.481	363.53
810.797	362.31
811.113	361.7
811.428	362.96
811.744	362.91
812.059	362.38
812.375	363.06
812.69	362.93
813.006	362.49
813.321	363.09
813.636	361.05
813.951	363.62
814.266	363.36
814.581	361.28
814.896	362.24
815.211	361.27
815.526	360.39
815.841	360.57
816.155	361.28
816.47	362.66
816.784	364.08
817.099	362.21
817.413	361.02
817.728	361.96
818.042	363.25
818.356	361.22
818.67	362.52
818.985	360.05
819.299	359.62
819.613	361.9
819.926	360.43
820.24	360.17
820.554	361.25
820.868	361.63
821.182	360.86
821.495	362.57
821.809	360.76
822.122	360.75
822.436	362.94
822.749	359.75
823.062	361.04
823.376	361.67
823.689	362.35
824.002	360.99
824.315	361.31
824.628	358.81
824.941	364.18
825.254	360.15
825.566	359.75
825.879	362.32
826.192	359.98
826.504	360.37
826.817	360.11
827.129	361.3
827.442	360.66
827.754	358.82
828.066	362.44
828.379	359.21
828.691	360.37
829.003	359.77
829.315	358.8
829.627	357.86
829.939	359.56
830.251	357.98
830.562	360.14
830.874	360.85
831.186	359.87
831.497	359.35
831.809	359.66
832.12	361.9
832.432	359.02
832.743	360.63
833.054	360.04
833.365	357.3
833.676	359.67
833.988	360.33
834.299	358.16
834.61	358.78
834.92	358.05
835.231	357.18
835.542	358.6
835.853	359.04
836.163	360.15
836.474	358.92
836.784	357.19
837.095	358.03
837.405	359.33
837.715	362.69
838.026	360.39
838.336	359.33
838.646	359.02
838.956	359.88
839.266	359.06
839.576	358.63
839.886	358.66
840.195	358.55
840.505	358.39
840.815	357.73
841.124	356.27
841.434	358.49
841.743	359.2
842.053	358.76
842.362	360.61
842.671	357.39
842.981	357.75
843.29	357.58
843.599	357.47
843.908	358.38
844.217	360.41
844.526	354.52
844.835	358.39
845.143	357.33
845.452	360.34
845.761	357.91
846.069	356.54
846.378	356.04
846.686	358.01
846.995	357.42
847.303	358.14
847.611	358.71
847.919	358.09
848.227	357.49
848.535	357.26
848.843	356.39
849.151	357.83
849.459	356.4
849.767	357.06
850.075	354.6
850.382	356.16
850.69	355.91
850.998	356.26
851.305	357.24
851.612	355.69
851.92	359
852.227	356.7
852.534	358.32
852.841	356.38
853.148	356.82
853.455	355.28
853.762	358.33
854.069	355.57
854.376	358.32
854.683	355.7
854.99	356.4
855.296	355.39
855.603	357.25
855.909	358.79
856.216	356.41
856.522	356.44
856.828	357.78
857.135	357.82
857.441	355.38
857.747	355.65
858.053	356.21
858.359	357.35
858.665	355.23
858.971	356.1
859.276	357.99
859.582	356.05
859.888	356.42
860.193	355.23
860.499	356.44
860.804	356.62
861.11	356.48
861.415	356.37
861.72	353.47
862.026	356.55
862.331	356.32
862.636	357.25
862.941	354.39
863.246	354.83
863.551	355.07
863.855	355.47
864.16	355.13
864.465	354.67
864.769	354.72
865.074	353.86
865.378	354.39
865.683	355.25
865.987	355.71
866.291	356.01
866.596	357.37
866.9	355.83
867.204	354.11
867.508	357.36
867.812	354.28
868.116	355.22
868.42	355.58
868.723	355.82
869.027	354.93
869.331	355.32
869.634	353.04
869.938	356.77
870.241	354.14
870.544	353.73
870.848	354.25
871.151	353.89
871.454	356.29
871.757	352.94
872.06	353.1
872.363	355.18
872.666	353.56
872.969	355.44
873.272	353.29
873.574	351.73
873.877	354.09
874.18	355.78
874.482	355.32
874.785	353.84
875.087	354.74
875.389	354.42
875.692	354.52
875.994	352.23
876.296	354.55
876.598	352.54
876.9	352.65
877.202	353.64
877.504	353.15
877.805	354.69
878.107	353.62
878.409	353.36
878.71	354.05
879.012	356.19
879.313	351.88
879.615	353.55
879.916	353.66
880.217	352.74
880.518	353.66
880.82	354.4
881.121	353.25
881.422	353.14
881.723	353.21
882.023	352.79
882.324	353.46
882.625	353.13
882.926	352.53
883.226	352.09
883.527	353.14
883.827	352.73
884.128	353.73
884.428	351.99
884.728	350.08
885.028	351.31
885.328	354.74
885.629	351.93
885.929	355.31
886.228	353.45
886.528	353.11
886.828	351.19
887.128	351.56
887.427	353.79
887.727	354.3
888.027	352.31
888.326	351.02
888.625	351.83
888.925	354.41
889.224	351.97
889.523	352.48
889.822	352.31
890.121	351.87
890.42	351.88
890.719	351.69
891.018	353.6
891.317	351.45
891.616	353.2
891.914	351.77
892.213	352.42
892.512	351.61
892.81	353.55
893.108	351.98
893.407	353.2
893.705	351.43
894.003	351.69
894.301	350.23
894.599	350.96
894.897	351.55
895.195	351.93
895.493	351.6
895.791	353.19
896.089	351.31
896.386	351.79
896.684	352.85
896.981	351.97
897.279	353.17
897.576	351.92
897.874	351.77
898.171	351.73
898.468	352.54
898.765	348.84
899.062	350.57
899.359	352.68
899.656	354.16
899.953	351.52
900.25	353.21
900.547	354.13
900.843	351.8
901.14	351.16
901.436	351.43
901.733	352.19
902.029	351.79
902.325	351.56
902.622	350.26
902.918	350.73
903.214	350.83
903.51	350.56
903.806	352.39
904.102	351.97
904.398	351.97
904.694	352.94
904.989	351.35
905.285	353.71
905.581	351.34
905.876	351.28
906.171	351.85
906.467	351.76
906.762	351.9
907.057	350.49
907.353	350.12
907.648	350.42
907.943	351.95
908.238	351.16
908.533	351.32
908.827	351.41
909.122	351.98
909.417	350.36
909.711	349.06
910.006	350.81
910.301	351.32
910.595	350.24
910.889	351.92
911.184	351.86
911.478	353.01
911.772	350.95
912.066	350.44
912.36	350.25
912.654	351.02
912.948	350.41
913.242	353.06
913.536	350.96
913.829	349.82
914.123	353.26
914.416	349.59
914.71	351.18
915.003	351.43
915.297	349.62
915.59	351.02
915.883	350.56
916.176	352.15
916.469	350.66
916.762	351.82
917.055	350.14
917.348	350.39
917.641	349.83
917.934	348.09
918.226	350.55
918.519	350.91
918.811	351.46
919.104	350.71
919.396	349.27
919.689	348.88
919.981	348.1
920.273	348.67
920.565	349.48
920.857	349.75
921.149	349.56
921.441	349.61
921.733	349.69
922.025	348.33
922.316	349.36
922.608	352.07
922.9	351.36
923.191	350.06
923.483	349.61
923.774	350.61
924.065	351.77
924.357	349.57
924.648	350.39
924.939	350.42
925.23	349.48
925.521	350.4
925.812	347.14
926.102	348.5
926.393	350.3
926.684	350.36
926.975	350.11
927.265	349.03
927.556	349.56
927.846	349.38
928.136	348.91
928.427	349.6
928.717	349.92
929.007	349.98
929.297	348.44
929.587	350.6
929.877	349.99
930.167	348.5
930.457	347.85
930.746	348.6
931.036	349.37
931.325	347.74
931.615	348.78
931.904	349.38
932.194	346.69
932.483	347.02
932.772	349.77
933.062	349.04
933.351	349.46
933.64	349.13
933.929	348.84
934.218	347.25
934.506	349.04
934.795	349.43
935.084	349.29
935.372	348.85
935.661	349.44
935.949	348.73
936.238	349.49
936.526	348.97
936.815	348.78
937.103	350.63
937.391	348
937.679	349.21
937.967	349.58
938.255	348.18
938.543	350.05
938.831	348.52
939.118	348.15
939.406	346.87
939.693	348.73
939.981	349.08
940.268	350.52
940.556	346.17
940.843	348.02
941.13	348.63
941.418	348.24
941.705	346.68
941.992	348.19
942.279	346.54
942.566	349.41
942.852	346.98
943.139	348.32
943.426	347.61
943.712	347.68
943.999	348.81
944.285	346.3
944.572	346.94
944.858	346.6
945.144	347.77
945.431	348.32
945.717	345.44
946.003	347.43
946.289	345.04
946.575	347.87
946.861	348.81
947.146	346.74
947.432	349.04
947.718	345.75
948.003	348.01
948.289	347.21
948.574	346.8
948.86	348.85
949.145	348.58
949.43	349.47
949.715	347.65
950	346.51
950.285	346.63
950.57	346.56
950.855	346.67
951.14	346
951.425	348.15
951.709	346.14
951.994	346.89
952.278	347.75
952.563	348.21
952.847	347.63
953.132	347.91
953.416	346.06
953.7	347.12
953.984	349
954.268	345.88
954.552	345.04
954.836	347.47
955.12	348.68
955.404	348.8
955.687	348.43
955.971	348.02
956.254	346.23
956.538	349.44
956.821	348.14
957.105	348.03
957.388	347.16
957.671	346.51
957.954	346.34
958.237	346.58
958.52	346.91
958.803	345.84
959.086	346.91
959.369	347.46
959.652	346.76
959.934	348.21
960.217	346.52
960.499	345.94
960.782	346.89
961.064	344.62
961.346	345.36
961.629	347.04
961.911	347.55
962.193	343.91
962.475	346.41
962.757	347.13
963.039	346.56
963.32	346.25
963.602	345.83
963.884	345.46
964.165	346.83
964.447	346.77
964.728	346.31
965.01	346.13
965.291	344.4
965.572	346
965.853	346.24
966.134	346.05
966.415	348.21
966.696	346.4
966.977	346.34
967.258	345.74
967.539	346.29
967.819	344.82
968.1	345.1
968.38	347.11
968.661	346.67
968.941	346.69
969.222	345.81
969.502	347.87
969.782	347.1
970.062	346.57
970.342	345.44
970.622	344.24
970.902	348.19
971.182	343.86
971.462	346.43
971.741	344.93
972.021	346.61
972.3	346.39
972.58	346.98
972.859	347.47
973.138	347.19
973.418	346.8
973.697	346.81
973.976	346.66
974.255	346.37
974.534	344.96
974.813	345.03
975.092	344.66
975.37	344.25
975.649	346.62
975.928	346.44
976.206	345.08
976.485	346.67
976.763	346.06
977.041	346.04
977.32	344.47
977.598	345.3
977.876	347.09
978.154	343.83
978.432	346.02
978.71	344.64
978.988	344.75
979.265	346.45
979.543	346.21
979.821	345.65
980.098	347.24
980.376	342.87
980.653	347.07
980.93	345.42
981.208	345.99
981.485	346.7
981.762	345.76
982.039	346.03
982.316	346.53
982.593	343.23
982.87	346.62
983.146	345.52
983.423	344.55
983.7	345.35
983.976	343.95
984.253	345.31
984.529	344.44
984.805	345.06
985.082	344.43
985.358	346.58
985.634	344.5
985.91	345.67
986.186	345.91
986.462	346.42
986.738	344.11
987.013	346.17
987.289	346.22
987.565	344.71
987.84	344.2
988.116	345.45
988.391	344.29
988.666	346.2
988.942	343.51
989.217	346
989.492	345.23
989.767	344.66
990.042	343.77
990.317	346.89
990.592	343.57
990.866	346.18
991.141	346.51
991.416	344.23
991.69	345.41
991.964	344.13
992.239	345.77
992.513	344.5
992.787	345.59
993.062	344.96
993.336	344.62
993.61	345.43
993.884	343.07
994.158	347.43
994.431	345.3
994.705	344.78
994.979	343.43
995.252	346.62
995.526	345.85
995.799	344.79
996.073	345.01
996.346	345.19
996.619	346.16
996.892	344.63
997.165	343.35
997.438	344.73
997.711	344.69
997.984	343.45
998.257	344.9
998.53	345.38
998.802	346.46
999.075	344.86
999.347	343.37
999.62	342.71
999.892	345.44
1000.165	345.55
1000.437	344.42
1000.709	344.5
1000.981	345.41
1001.253	343.62
1001.525	345.61
1001.797	343.02
1002.068	344.5
1002.34	344.7
1002.612	343.19
1002.883	344.72
1003.155	347.03
1003.426	344.53
1003.698	342.88
1003.969	344.89
1004.24	342.55
1004.511	343.81
1004.782	344.89
1005.053	345.54
1005.324	342.81
1005.595	343.45
1005.866	342.68
1006.136	344.61
1006.407	344.41
1006.678	343.47
1006.948	344.45
1007.218	345.76
1007.489	341.14
1007.759	344.82
1008.029	345.75
1008.299	342.04
1008.569	343.92
1008.839	342.5
1009.109	343.73
1009.379	344.27
1009.649	342.39
1009.918	342.19
1010.188	343.26
1010.458	342.84
1010.727	343.34
1010.996	345
1011.266	342.6
1011.535	345.24
1011.804	342.8
1012.073	344.08
1012.342	344.24
1012.611	344.05
1012.88	343.77
1013.149	342.99
1013.417	344.03
1013.686	342.06
1013.955	343.33
1014.223	343.62
1014.492	344.66
1014.76	344.06
1015.028	345.1
1015.296	345.04
1015.565	346.18
1015.833	343.08
1016.101	344.14
1016.368	345.2
1016.636	343.53
1016.904	343.51
1017.172	342.84
1017.439	344.46
1017.707	343.87
1017.974	344.29
1018.242	345.61
1018.509	343.59
1018.776	346.18
1019.044	343.64
1019.311	343.26
1019.578	342.87
1019.845	343.27
1020.112	343.94
1020.378	343.94
1020.645	343.94
