Data from 190626_Kr_41K_no_film_FLMS138901_16-41-36-406.txt Node
Date: Wed Jun 26 16:41:36 EDT 2019
User: pSAM
Spectrometer: FLMS13890
Trigger mode: 0
Integration Time (sec): 5.000000E-3
Scans to average: 1000
Electric dark correction enabled: true
Nonlinearity correction enabled: false
Boxcar width: 0
XAxis mode: Wavelengths
Number of Pixels in Spectrum: 2048
>>>>>Begin Spectral Data<<<<<
342.097	-57.71
342.483	-57.71
342.868	-57.71
343.254	-100.41
343.639	-100.76
344.025	-102.52
344.41	-100.41
344.796	-88.47
345.181	-79.37
345.567	-64.25
345.952	-52.94
346.337	-36.66
346.722	-19.84
347.107	-1.21
347.493	19.77
347.878	38.12
348.263	57.89
348.648	80.64
349.033	96.49
349.418	116.6
349.802	136.15
350.187	156.45
350.572	173.38
350.957	232.86
351.342	356.81
351.726	378.86
352.111	394.37
352.495	409.52
352.88	423.85
353.264	436.39
353.649	448.26
354.033	460.46
354.418	472.05
354.802	479.07
355.186	489.24
355.57	495.24
355.955	504.74
356.339	509.54
356.723	513.83
357.107	518.15
357.491	540.13
357.875	525.11
358.259	525.02
358.643	528.55
359.026	531.8
359.41	532.14
359.794	532.34
360.178	534.91
360.561	535.1
360.945	534.51
361.329	535.41
361.712	535.46
362.096	534.22
362.479	534.79
362.862	536.33
363.246	534.33
363.629	535.03
364.012	531.54
364.396	533.02
364.779	534.54
365.162	535.44
365.545	536.2
365.928	535.42
366.311	536.47
366.694	537.47
367.077	539.86
367.46	540.08
367.843	541.4
368.226	541.23
368.608	542.99
368.991	545.54
369.374	545.61
369.756	548.32
370.139	547.5
370.521	547.34
370.904	550.69
371.286	549.53
371.669	549.21
372.051	551.54
372.433	554.4
372.816	557.17
373.198	557.9
373.58	561.83
373.962	562.99
374.344	565.21
374.726	568.54
375.108	569.66
375.49	570.87
375.872	571.28
376.254	570.16
376.636	576.08
377.018	575.01
377.399	573.77
377.781	579.43
378.163	577.76
378.544	582.95
378.926	587.37
379.307	592.68
379.689	596.63
380.07	597.36
380.452	601.66
380.833	602.83
381.214	605.56
381.596	608.18
381.977	615.48
382.358	622.53
382.739	626.3
383.12	629.33
383.501	631.97
383.882	631.95
384.263	633.45
384.644	631.9
385.025	636.83
385.406	637.24
385.787	641.63
386.167	646.33
386.548	647.82
386.929	653.16
387.309	663.37
387.69	668.42
388.07	680.19
388.451	680.57
388.831	685.71
389.211	679.72
389.592	675.5
389.972	672.81
390.352	677.87
390.733	681.14
391.113	679.99
391.493	684
391.873	692.43
392.253	699.63
392.633	711.16
393.013	717.05
393.393	722.09
393.772	721.24
394.152	722.88
394.532	721.84
394.912	731.29
395.291	728.55
395.671	731.28
396.05	725.38
396.43	724.25
396.809	726.14
397.189	735.56
397.568	740.07
397.948	747.02
398.327	756.57
398.706	764.04
399.085	766.84
399.465	767.22
399.844	761.93
400.223	758.55
400.602	763.09
400.981	756.08
401.36	756.64
401.739	757.06
402.117	762.23
402.496	756.89
402.875	762.43
403.254	771.02
403.632	771.94
404.011	778.29
404.39	788.66
404.768	790.57
405.147	806.58
405.525	813.27
405.903	817.39
406.282	820.27
406.66	819.86
407.038	811.7
407.417	806.93
407.795	804.54
408.173	805.94
408.551	807.86
408.929	813.97
409.307	819.29
409.685	827.07
410.063	828.04
410.441	829.7
410.818	833.36
411.196	833.13
411.574	845.52
411.952	844.36
412.329	861.25
412.707	875.86
413.084	883.61
413.462	890.74
413.839	894.03
414.217	882.82
414.594	883.99
414.971	884.92
415.349	888.53
415.726	889.7
416.103	885.44
416.48	889.89
416.857	895.33
417.234	904.5
417.611	907.5
417.988	911.16
418.365	902.75
418.742	906.23
419.119	913.73
419.495	912.79
419.872	915.54
420.249	938.17
420.625	944.39
421.002	957.38
421.379	967.12
421.755	983.06
422.131	999.87
422.508	1003.73
422.884	1004.9
423.26	1016.1
423.637	1026.29
424.013	1004.46
424.389	996.63
424.765	990.08
425.141	994.66
425.517	991.23
425.893	984.06
426.269	985.45
426.645	984.97
427.021	1013.26
427.397	1029.77
427.772	1042.7
428.148	1045.12
428.524	1046.06
428.899	1036.77
429.275	1046.39
429.651	1057.67
430.026	1073.57
430.401	1088.1
430.777	1091.97
431.152	1091.43
431.527	1084.59
431.903	1082.75
432.278	1075.39
432.653	1072.47
433.028	1078.93
433.403	1106.21
433.778	1141.45
434.153	1139.62
434.528	1138.35
434.903	1133.88
435.278	1141.13
435.653	1145
436.027	1146.89
436.402	1155.16
436.777	1164.59
437.151	1169.73
437.526	1180.82
437.9	1179.7
438.275	1196.68
438.649	1197.15
439.023	1208.45
439.398	1204.31
439.772	1202.36
440.146	1208.85
440.52	1224.45
440.895	1241.77
441.269	1275.79
441.643	1299.47
442.017	1302.4
442.391	1300.82
442.765	1295.05
443.138	1285.41
443.512	1300.35
443.886	1304.71
444.26	1311.09
444.633	1319.4
445.007	1322.2
445.38	1323.92
445.754	1329.5
446.127	1337.32
446.501	1335.41
446.874	1333.04
447.248	1328.78
447.621	1340.87
447.994	1333.6
448.367	1341.52
448.741	1346.05
449.114	1334.84
449.487	1351.84
449.86	1355.61
450.233	1363.13
450.606	1357.1
450.978	1353.88
451.351	1374.07
451.724	1358.54
452.097	1358.32
452.469	1368.87
452.842	1364.96
453.215	1373.54
453.587	1369.95
453.96	1377.57
454.332	1382.59
454.704	1394.2
455.077	1397.87
455.449	1413.39
455.821	1416.28
456.194	1434.1
456.566	1432.15
456.938	1447.24
457.31	1463.37
457.682	1489.21
458.054	1499.08
458.426	1516.78
458.798	1530.96
459.17	1539.52
459.541	1537.72
459.913	1522.84
460.285	1524.79
460.656	1523.06
461.028	1522.89
461.399	1535.78
461.771	1534.55
462.142	1546.75
462.514	1565.1
462.885	1580.66
463.256	1618.52
463.628	1633.78
463.999	1666.34
464.37	1699.24
464.741	1712.52
465.112	1700.47
465.483	1713.88
465.854	1723.28
466.225	1717.01
466.596	1720
466.967	1731.6
467.338	1731.35
467.708	1759.79
468.079	1768.51
468.45	1784.61
468.82	1790.7
469.191	1803.06
469.561	1797.99
469.932	1808.55
470.302	1792.77
470.673	1822.92
471.043	1838.88
471.413	1865.22
471.783	1892.39
472.154	1923.75
472.524	1946.42
472.894	1994.37
473.264	2027.57
473.634	2028.6
474.004	2038.29
474.374	2066.63
474.743	2080.77
475.113	2121.65
475.483	2149.01
475.853	2181.19
476.222	2202.99
476.592	2244.66
476.961	2236.94
477.331	2256.66
477.7	2280.15
478.07	2341.63
478.439	2366.62
478.808	2393.01
479.178	2399.5
479.547	2449.01
479.916	2463.81
480.285	2518.22
480.654	2537.47
481.023	2567.57
481.392	2597.68
481.761	2621.79
482.13	2659.53
482.499	2691.4
482.867	2713.61
483.236	2780.72
483.605	2835.18
483.973	2868.14
484.342	2933.64
484.71	2969.08
485.079	3033.1
485.447	3367.56
485.816	3791.67
486.184	4029.59
486.552	3922.76
486.921	3603.11
487.289	3369.48
487.657	3289.69
488.025	3257.81
488.393	3260.1
488.761	3281.84
489.129	3322.41
489.497	3344.95
489.865	3430.23
490.233	3466.28
490.6	3522.97
490.968	3518.88
491.336	3541.12
491.703	3563.94
492.071	3598.03
492.438	3617.75
492.806	3654.1
493.173	3721.14
493.541	3750.28
493.908	3759.2
494.275	3772.24
494.642	3773.87
495.01	3784.75
495.377	3796.59
495.744	3822.34
496.111	3897.62
496.478	3968.77
496.845	3987.9
497.211	3984.64
497.578	3999.54
497.945	4017.31
498.312	4071.05
498.678	4131.48
499.045	4179.44
499.412	4188.46
499.778	4193.81
500.145	4202.13
500.511	4213.85
500.878	4266.94
501.244	4321.95
501.61	4346.57
501.976	4368.12
502.343	4378.82
502.709	4434.23
503.075	4438.33
503.441	4451.3
503.807	4468.29
504.173	4452.5
504.539	4466.3
504.905	4494.5
505.27	4533.18
505.636	4559.55
506.002	4608.16
506.367	4616.13
506.733	4640.74
507.099	4634.86
507.464	4654.65
507.829	4659.2
508.195	4707.05
508.56	4738.39
508.926	4753.13
509.291	4762.5
509.656	4784.08
510.021	4810.35
510.386	4837.61
510.751	4878.23
511.116	4905.99
511.481	4928.76
511.846	4955.37
512.211	4961.67
512.576	4990.28
512.941	5004.46
513.305	5037.09
513.67	5060.13
514.035	5056.42
514.399	5087.17
514.764	5083.56
515.128	5119.81
515.493	5131.02
515.857	5162.01
516.221	5171.64
516.585	5198.95
516.95	5234.04
517.314	5241.04
517.678	5258.36
518.042	5279.34
518.406	5321.74
518.77	5318.41
519.134	5335.35
519.498	5405.74
519.862	5400.31
520.225	5391.63
520.589	5426.68
520.953	5464.2
521.316	5497.19
521.68	5522.44
522.043	5574.14
522.407	5569.48
522.77	5574
523.134	5633.79
523.497	5630.15
523.86	5657.17
524.223	5683.37
524.587	5717.56
524.95	5730.39
525.313	5768.96
525.676	5797.29
526.039	5816.37
526.402	5831.28
526.765	5892.7
527.127	5931.65
527.49	5967.24
527.853	5991.18
528.215	5979.22
528.578	6040.51
528.941	6060.23
529.303	6126.94
529.666	6151.64
530.028	6169.93
530.39	6194.72
530.753	6226.37
531.115	6274.35
531.477	6322.58
531.839	6353.32
532.201	6365.68
532.564	6414.36
532.926	6445.13
533.287	6541.52
533.649	6572.35
534.011	6623.76
534.373	6660.19
534.735	6694.35
535.097	6706.22
535.458	6755.39
535.82	6804.95
536.181	6823.01
536.543	6823.12
536.904	6794.61
537.266	6868.06
537.627	6935.7
537.988	6988.74
538.35	7011.1
538.711	7070.13
539.072	7121.33
539.433	7133.09
539.794	7190.54
540.155	7195.67
540.516	7252.06
540.877	7287.36
541.238	7342.33
541.599	7408.83
541.959	7440.39
542.32	7522.33
542.681	7557.18
543.041	7552.77
543.402	7599.78
543.762	7635.07
544.123	7618.66
544.483	7675.37
544.844	7726.64
545.204	7745.42
545.564	7770.04
545.924	7786.98
546.284	7797.01
546.644	7796.68
547.004	7841.73
547.364	7931.12
547.724	7986.03
548.084	7983.02
548.444	8068.65
548.804	8081.24
549.164	8112.8
549.523	8124.1
549.883	8129.37
550.242	8132.96
550.602	8176.14
550.961	8220.81
551.321	8228.71
551.68	8245.45
552.04	8267.3
552.399	8350.54
552.758	8370.95
553.117	8350.42
553.476	8427.52
553.835	8473.73
554.194	8506.46
554.553	8492.58
554.912	8501.35
555.271	8548.83
555.63	8605.1
555.989	8688.47
556.347	8694.19
556.706	8719.01
557.065	8688.33
557.423	8735.06
557.782	8782.62
558.14	8793.47
558.499	8812.59
558.857	8827.75
559.215	8829.01
559.573	8902.21
559.932	8944.83
560.29	8995.32
560.648	9019.05
561.006	9088.83
561.364	9098.82
561.722	9110.94
562.08	9179.69
562.438	9135.77
562.795	9232.93
563.153	9274.09
563.511	9294.45
563.868	9312.03
564.226	9374.32
564.583	9410.92
564.941	9383.68
565.298	9422.63
565.656	9424.06
566.013	9487.7
566.37	9508.22
566.727	9535.3
567.085	9618.07
567.442	9730.09
567.799	9846.21
568.156	9912.29
568.513	9996.98
568.87	10087.09
569.226	10233.16
569.583	10450.48
569.94	10579.79
570.297	10667.49
570.653	10629.43
571.01	10717.38
571.366	10880.39
571.723	11010.73
572.079	10958.41
572.436	10962.87
572.792	10893.14
573.148	11044.15
573.505	11214.77
573.861	11529.47
574.217	11625.04
574.573	11615.78
574.929	11597.75
575.285	11616.84
575.641	11719.18
575.997	11724.58
576.352	11802.5
576.708	11864.15
577.064	12038.18
577.42	12198.95
577.775	12473.44
578.131	12604.51
578.486	12548.55
578.842	12261.82
579.197	12162.94
579.552	12269.77
579.908	12474.07
580.263	12745.32
580.618	12611.12
580.973	12644.29
581.328	13034.21
581.683	13575.38
582.038	13957.46
582.393	13626.93
582.748	13179.1
583.103	12676.99
583.458	12322.45
583.812	12255.19
584.167	12456.95
584.522	12724.87
584.876	13018.82
585.231	13159.35
585.585	13192.05
585.939	13051.36
586.294	12902.6
586.648	12787.12
587.002	12720.22
587.356	12876.36
587.711	13141.31
588.065	13206.36
588.419	13310.58
588.773	13230.36
589.127	12995.69
589.48	12891.15
589.834	12591.14
590.188	12545.72
590.542	12618.65
590.895	12532.56
591.249	12611.4
591.603	12546.96
591.956	12571.8
592.309	12637.39
592.663	12855.47
593.016	13182.34
593.369	13417.49
593.723	13336.08
594.076	13255.5
594.429	13199.93
594.782	13303.59
595.135	13521.81
595.488	13613.12
595.841	13493.52
596.194	13325.41
596.547	13222.53
596.899	13109.88
597.252	13109.89
597.605	13249.37
597.957	13259.43
598.31	13275.6
598.662	13322.15
599.015	13353.74
599.367	13478.06
599.719	13476.21
600.072	13476.12
600.424	13529.17
600.776	13683.99
601.128	13753.21
601.48	13707.61
601.832	13776.91
602.184	13788.48
602.536	13828.7
602.888	13929.52
603.24	14121.66
603.592	14250.75
603.943	14205.46
604.295	14057.45
604.646	13894.92
604.998	13819.59
605.349	13894.48
605.701	13925.19
606.052	14003.19
606.404	13949.17
606.755	13917.58
607.106	13988.38
607.457	14012.85
607.808	14060.82
608.159	14005.84
608.51	13984.93
608.861	14074.05
609.212	14014.7
609.563	14122.18
609.914	14195.18
610.265	14232.47
610.615	14393.95
610.966	14446.15
611.316	14446.54
611.667	14534.65
612.017	14594.38
612.368	14348.52
612.718	14533.21
613.068	14530.37
613.419	14557.35
613.769	14551.85
614.119	14605.93
614.469	14730.89
614.819	14561.69
615.169	14537.64
615.519	14656.03
615.869	14613.96
616.219	14603.12
616.568	14486.4
616.918	14339.63
617.268	14499.16
617.617	14599.59
617.967	14661.47
618.316	14587.84
618.666	14504.22
619.015	14472.54
619.364	14521.92
619.714	14714.43
620.063	14787.09
620.412	14793.71
620.761	14787.89
621.11	14752.48
621.459	14638.94
621.808	14704.39
622.157	14797.68
622.506	14895.4
622.855	15045.42
623.203	15076.28
623.552	15111.21
623.901	15153.47
624.249	15091.56
624.598	15128.36
624.946	15026.4
625.295	14953.62
625.643	14916.64
625.991	15009.96
626.34	14985.83
626.688	15055.37
627.036	15170.49
627.384	15202.28
627.732	15253.21
628.08	15228.41
628.428	15252.65
628.776	15258.25
629.124	15279.86
629.471	15362.66
629.819	15444.2
630.167	15455.11
630.514	15464.39
630.862	15327.22
631.209	15351.98
631.557	15403.66
631.904	15414.53
632.251	15443.84
632.599	15392.58
632.946	15447.57
633.293	15472.77
633.64	15467.84
633.987	15503.33
634.334	15547.91
634.681	15572.32
635.028	15638.55
635.375	15637.48
635.722	15749.51
636.068	15774.91
636.415	15844.47
636.762	15979.33
637.108	15966.82
637.455	15952.36
637.801	15966.72
638.147	16047.56
638.494	15952.83
638.84	16082.38
639.186	15971.91
639.532	15912.29
639.878	16008.23
640.225	16011.45
640.571	16041.97
640.916	16032.03
641.262	16087.49
641.608	16120.34
641.954	16163.49
642.3	16190.43
642.645	16138.89
642.991	16215.87
643.337	16207.28
643.682	16228.95
644.028	16325.45
644.373	16266.41
644.718	16256.8
645.064	16291.07
645.409	16304.68
645.754	16295.13
646.099	16374.02
646.444	16412.72
646.789	16491.49
647.134	16410.7
647.479	16512.26
647.824	16540.84
648.169	16580.59
648.513	16591.34
648.858	16592.04
649.203	16626.25
649.547	16687.76
649.892	16756.06
650.236	16756.4
650.581	16694.53
650.925	16637.23
651.269	16624.42
651.613	16783.09
651.958	16844.05
652.302	16952.71
652.646	16857.52
652.99	16783.34
653.334	16971.04
653.678	16904.88
654.022	16902.33
654.365	16877.45
654.709	16872.6
655.053	16855.64
655.396	17191.72
655.74	21169.77
656.083	30114.64
656.427	37123.52
656.77	39696.68
657.114	32617.52
657.457	24101.83
657.8	19801.8
658.143	18052.02
658.486	17433.49
658.83	17243.51
659.173	17216.47
659.516	17182.48
659.858	17213.41
660.201	17208.94
660.544	17141.17
660.887	17082.85
661.229	17211.32
661.572	17125.65
661.915	17138.22
662.257	17111.86
662.6	17142.39
662.942	17100.02
663.284	16989.71
663.627	17155.75
663.969	17293.32
664.311	17241.83
664.653	17164.81
664.995	17224.16
665.337	17235.49
665.679	17246.48
666.021	17233.62
666.363	17167.89
666.705	17148.62
667.046	17154.39
667.388	17125.75
667.73	17194.07
668.071	17257.47
668.413	17190.51
668.754	17176.37
669.096	17128.75
669.437	17341.89
669.778	17243.49
670.119	17226.48
670.461	17214.42
670.802	17320.15
671.143	17343.51
671.484	17378.31
671.825	17331.23
672.165	17344.53
672.506	17425.68
672.847	17300.85
673.188	17203.56
673.528	17174.4
673.869	17199.1
674.21	17242.56
674.55	17165.45
674.89	17147.63
675.231	17191.87
675.571	17244.89
675.911	17271.49
676.252	17289.03
676.592	17403.78
676.932	17221.16
677.272	17083.03
677.612	17235.67
677.952	17386.57
678.292	17351.5
678.631	17287.44
678.971	17268.9
679.311	17414.42
679.651	17359.06
679.99	17459.93
680.33	17456.7
680.669	17410.97
681.009	17303.48
681.348	17356.62
681.687	17393.13
682.026	17515.13
682.366	17452.47
682.705	17411.37
683.044	17450.69
683.383	17385.96
683.722	17390.61
684.061	17214.37
684.4	17319.46
684.738	17383.55
685.077	17545.34
685.416	17471.59
685.754	17485.11
686.093	17484.08
686.431	17578.42
686.77	17489.55
687.108	17429.2
687.447	17219.29
687.785	17392.17
688.123	17413.28
688.461	17409.54
688.799	17253.5
689.137	17303.76
689.475	17370.85
689.813	17289.84
690.151	17490.51
690.489	17420.28
690.827	17380.32
691.164	17391.17
691.502	17356.82
691.84	17349.63
692.177	17483.14
692.515	17432.18
692.852	17314.77
693.189	17301.59
693.527	17281.23
693.864	17337.23
694.201	17351.65
694.538	17178.5
694.875	17169.48
695.212	17186.6
695.549	17304.34
695.886	17263.93
696.223	17296.27
696.56	17297.84
696.897	17148.65
697.233	17211.94
697.57	17370.36
697.906	17515.71
698.243	17481.91
698.579	17398.26
698.916	17509.96
699.252	17273.68
699.588	17290.41
699.924	17341.65
700.261	17287.36
700.597	17246.77
700.933	17232.13
701.269	17193.43
701.605	17169.12
701.941	17138.31
702.276	17291.48
702.612	17266.48
702.948	17316.37
703.283	17195.62
703.619	17106.31
703.954	17191.79
704.29	17204.17
704.625	17254.54
704.961	17148.78
705.296	17298.09
705.631	17263.43
705.966	17286.35
706.301	17178.47
706.637	17145.72
706.972	17389.81
707.306	17383.22
707.641	17447.76
707.976	17387.01
708.311	17375.42
708.646	17349.27
708.98	17244.22
709.315	17245.99
709.649	17129.96
709.984	17260.1
710.318	17251.84
710.653	17218.06
710.987	17108.73
711.321	17110.32
711.655	17161.31
711.989	17155.88
712.324	17045.97
712.658	17049.79
712.992	17144.87
713.325	17129.23
713.659	17066.66
713.993	16977.17
714.327	17096.14
714.66	17168.04
714.994	17080.78
715.328	17126.81
715.661	17147.74
715.994	17153.54
716.328	17078.91
716.661	17128.59
716.994	17166.06
717.328	16988.16
717.661	16879.07
717.994	16905.35
718.327	16987.85
718.66	16942.88
718.993	16954.81
719.325	16867.42
719.658	16814.57
719.991	16818.99
720.324	16805.9
720.656	16657.62
720.989	16712.57
721.321	16775.52
721.654	16707.48
721.986	16677.7
722.318	16573.03
722.651	16616.94
722.983	16420.15
723.315	16454.24
723.647	16509.6
723.979	16522.36
724.311	16579.1
724.643	16538.87
724.975	16414.28
725.307	16405
725.638	16586.15
725.97	16604.21
726.302	16646.43
726.633	16492.95
726.965	16645.67
727.296	16562.61
727.628	16363.42
727.959	16323.29
728.29	16396.08
728.621	16361.55
728.952	16535.97
729.284	16529.89
729.615	16438.79
729.945	16215.9
730.276	16091.77
730.607	16153.45
730.938	16023.22
731.269	16113.64
731.599	16098.13
731.93	16177.06
732.261	16095.08
732.591	16153.3
732.922	16142.76
733.252	15945.96
733.582	15882.99
733.912	15932.31
734.243	15904.67
734.573	15991.03
734.903	16109.77
735.233	16008.47
735.563	15901.09
735.893	15780.5
736.223	15754.37
736.552	15744.81
736.882	15592.09
737.212	15496.56
737.541	15540.67
737.871	15600.22
738.2	15643.63
738.53	15480.88
738.859	15365.51
739.188	15246.9
739.518	15236.58
739.847	15322.63
740.176	15211.04
740.505	15260.09
740.834	15266.62
741.163	15152.69
741.492	15012.51
741.821	14999.88
742.15	14997.24
742.478	14995.45
742.807	14934.74
743.136	15008.05
743.464	14941.69
743.793	14876.57
744.121	14807.9
744.449	14820.53
744.778	14741.44
745.106	14688.19
745.434	14612.79
745.762	14560.65
746.09	14544.38
746.418	14493.67
746.746	14430.61
747.074	14349.82
747.402	14493.42
747.73	14456.82
748.057	14560.7
748.385	14435.95
748.712	14262.87
749.04	14229.52
749.367	14216.14
749.695	14118.2
750.022	14154.91
750.349	14128.28
750.677	14131.57
751.004	14079.13
751.331	14030.56
751.658	14085.36
751.985	14031.65
752.312	13855.04
752.639	13855.39
752.966	13914.43
753.292	13779.24
753.619	13858.4
753.946	13771.98
754.272	13718
754.599	13839.86
754.925	13878.13
755.251	13810.21
755.578	13700.69
755.904	13581.23
756.23	13427.15
756.556	13475.58
756.882	13522.72
757.208	13438.05
757.534	13469.12
757.86	13684.08
758.186	13664.18
758.512	13544.24
758.838	13480.43
759.163	13395.98
759.489	13346.92
759.814	13149.91
760.14	13371.86
760.465	13271.83
760.791	13110.88
761.116	13067.79
761.441	13031.97
761.766	13120.14
762.092	13002.47
762.417	12769.19
762.742	12709.01
763.066	12641.39
763.391	12626.65
763.716	12694.21
764.041	12702.4
764.366	12656.03
764.69	12584.9
765.015	12651.94
765.339	12730.36
765.664	12755.06
765.988	12625.1
766.312	12527.43
766.637	12343.22
766.961	12271.52
767.285	12322.98
767.609	12229.2
767.933	12065.42
768.257	12147.3
768.581	12038.53
768.905	12174.18
769.229	12179.1
769.552	12113.21
769.876	12236.41
770.2	12125.75
770.523	12021.66
770.847	11912.47
771.17	11860.89
771.493	11927.53
771.817	11963.33
772.14	11846.47
772.463	11770.78
772.786	11663.94
773.109	11539.06
773.432	11550.42
773.755	11525.86
774.078	11434.46
774.401	11362.43
774.724	11340.26
775.046	11379.95
775.369	11207.82
775.692	11202.74
776.014	11137.93
776.336	11063.73
776.659	11106.03
776.981	11126.99
777.303	11037.47
777.626	10946.33
777.948	10949.01
778.27	10954.02
778.592	10976.4
778.914	10965.99
779.236	10863.13
779.557	10874.42
779.879	10944.88
780.201	10967.7
780.523	11033.78
780.844	10999.25
781.166	10909.96
781.487	10912.43
781.809	10897.14
782.13	10982.44
782.451	10924.93
782.772	10962.7
783.094	10870.48
783.415	10932.38
783.736	10924.51
784.057	10976.46
784.378	10993.8
784.698	10917.47
785.019	11077.35
785.34	10903.78
785.661	11020.83
785.981	11054.74
786.302	11092.93
786.622	11095.2
786.943	11125.84
787.263	10986.47
787.583	10957.96
787.903	10989.28
788.224	10959.38
788.544	11015.71
788.864	10962.03
789.184	11141.85
789.504	11108.67
789.824	11090.5
790.143	11140.48
790.463	11152.98
790.783	11023.91
791.102	11015.13
791.422	11048.05
791.741	11052.64
792.061	11062.89
792.38	11103.02
792.699	11048.55
793.019	11026.28
793.338	10951.44
793.657	10874.67
793.976	10923.38
794.295	10999.62
794.614	11048.82
794.933	10930.57
795.252	10954.46
795.57	10915.94
795.889	10919.14
796.208	10923.35
796.526	10808.39
796.845	10753.04
797.163	10747.02
797.482	10727.91
797.8	10738.41
798.118	10785.5
798.436	10798.54
798.754	10711.45
799.073	10577.58
799.391	10509.81
799.708	10563.69
800.026	10654.99
800.344	10583.11
800.662	10482.49
800.98	10482.43
801.297	10479.21
801.615	10447.35
801.932	10391.35
802.25	10449.51
802.567	10409.14
802.884	10362.12
803.202	10327.68
803.519	10215.84
803.836	10268.98
804.153	10297.12
804.47	10217.06
804.787	10194.52
805.104	10151.98
805.421	10124.8
805.737	10072.09
806.054	10007.2
806.371	9987.03
806.687	9978.59
807.004	9929.2
807.32	9880.29
807.637	9880.39
807.953	9913.67
808.269	9882.78
808.585	9828.98
808.902	9739.2
809.218	9739.05
809.534	9670.84
809.85	9564.33
810.165	9499.07
810.481	9546.94
810.797	9555.76
811.113	9503.96
811.428	9440.21
811.744	9441.52
812.059	9410.25
812.375	9367.81
812.69	9341.61
813.006	9278.82
813.321	9276.82
813.636	9176.17
813.951	9142.68
814.266	9145.45
814.581	9130.3
814.896	9123.91
815.211	9100.46
815.526	9100.03
815.841	9070.54
816.155	9045.59
816.47	8978.44
816.784	8960.06
817.099	8943.82
817.413	8913.2
817.728	8986.86
818.042	8978.42
818.356	8946.19
818.67	8916.93
818.985	8963.99
819.299	8803.39
819.613	8771.49
819.926	8621.45
820.24	8643.79
820.554	8682.57
820.868	8799.21
821.182	8696.49
821.495	8655.27
821.809	8561.57
822.122	8559.87
822.436	8525.73
822.749	8521.64
823.062	8465.41
823.376	8391.71
823.689	8320.24
824.002	8281.74
824.315	8284
824.628	8287.82
824.941	8274.24
825.254	8251.84
825.566	8153.79
825.879	8081.57
826.192	8057.5
826.504	8016.43
826.817	8059.94
827.129	8084.4
827.442	7998.55
827.754	7986.14
828.066	7994.75
828.379	7884.16
828.691	7822.83
829.003	7775.89
829.315	7866.02
829.627	7834.87
829.939	7724.2
830.251	7693.71
830.562	7669.68
830.874	7695.15
831.186	7618.52
831.497	7686.68
831.809	7678.09
832.12	7626.34
832.432	7547.41
832.743	7549.88
833.054	7467.35
833.365	7489.81
833.676	7506.49
833.988	7537.62
834.299	7514.19
834.61	7396.02
834.92	7358.57
835.231	7377.02
835.542	7411.67
835.853	7376.65
836.163	7363.02
836.474	7304.08
836.784	7253.83
837.095	7225.87
837.405	7193.17
837.715	7172.08
838.026	7152
838.336	7145.61
838.646	7119.7
838.956	7028.67
839.266	6985.24
839.576	6924.73
839.886	6874.97
840.195	6927.23
840.505	6922.18
840.815	6925.95
841.124	6847.25
841.434	6766.3
841.743	6693.05
842.053	6668.81
842.362	6611.96
842.671	6590.87
842.981	6609.13
843.29	6558.4
843.599	6540.12
843.908	6485.8
844.217	6390.29
844.526	6469.95
844.835	6510.31
845.143	6489.55
845.452	6440.58
845.761	6413.09
846.069	6331.47
846.378	6384.3
846.686	6343.16
846.995	6312.64
847.303	6284.48
847.611	6277.55
847.919	6226.16
848.227	6192.97
848.535	6096.26
848.843	6043.37
849.151	5983.04
849.459	6017.57
849.767	5972.37
850.075	5974.3
850.382	5914.02
850.69	5860.18
850.998	5831.4
851.305	5787.58
851.612	5857.6
851.92	5900.07
852.227	5917.98
852.534	5885.15
852.841	5846.89
853.148	5798.92
853.455	5813.56
853.762	5805.25
854.069	5820.46
854.376	5794.15
854.683	5770.04
854.99	5683.68
855.296	5607.58
855.603	5505.27
855.909	5468.57
856.216	5465.43
856.522	5478.81
856.828	5448.83
857.135	5451
857.441	5396.06
857.747	5322.55
858.053	5282.87
858.359	5208.46
858.665	5270.94
858.971	5283.69
859.276	5298.09
859.582	5309.61
859.888	5281.84
860.193	5226
860.499	5208.85
860.804	5177.65
861.11	5110.9
861.415	5097.63
861.72	5069.54
862.026	5017.42
862.331	5013.49
862.636	4986.89
862.941	4981.45
863.246	4933.59
863.551	4916.88
863.855	4910.33
864.16	4899.17
864.465	4865.3
864.769	4840.8
865.074	4837.34
865.378	4797.61
865.683	4771.15
865.987	4795.83
866.291	4764.36
866.596	4746.47
866.9	4700.26
867.204	4676.07
867.508	4632.17
867.812	4626.52
868.116	4603.4
868.42	4580.94
868.723	4554.31
869.027	4529.78
869.331	4479.73
869.634	4469.5
869.938	4402.38
870.241	4397.08
870.544	4403.52
870.848	4406.76
871.151	4384.45
871.454	4345.57
871.757	4315.79
872.06	4281.27
872.363	4232.78
872.666	4225.11
872.969	4218.71
873.272	4211.94
873.574	4216.82
873.877	4222.64
874.18	4182.06
874.482	4133.5
874.785	4088.08
875.087	4026.31
875.389	4068.33
875.692	4075.58
875.994	4054.54
876.296	4040.77
876.598	4009.95
876.9	3958.31
877.202	3899.45
877.504	3885.47
877.805	3900.72
878.107	3904.48
878.409	3878.62
878.71	3908.67
879.012	3899.51
879.313	3838.43
879.615	3817.1
879.916	3745.54
880.217	3704.95
880.518	3691.82
880.82	3675.47
881.121	3659.13
881.422	3674.65
881.723	3658.51
882.023	3618.03
882.324	3574.81
882.625	3532.32
882.926	3499.31
883.226	3501.73
883.527	3465.94
883.827	3464.7
884.128	3480.18
884.428	3470.6
884.728	3401.38
885.028	3366.93
885.328	3356.99
885.629	3330.69
885.929	3361.81
886.228	3356.64
886.528	3323.59
886.828	3301.7
887.128	3253.97
887.427	3201.29
887.727	3167.25
888.027	3140.4
888.326	3158.73
888.625	3171.86
888.925	3152.13
889.224	3163.37
889.523	3145.01
889.822	3117.59
890.121	3101.29
890.42	3091.31
890.719	3104.09
891.018	3100.18
891.317	3130.23
891.616	3127.58
891.914	3110.4
892.213	3081.66
892.512	3033.95
892.81	2992.63
893.108	2980.6
893.407	2977.27
893.705	2963.22
894.003	2945.42
894.301	2935.42
894.599	2927.27
894.897	2940.48
895.195	2938.11
895.493	2910.63
895.791	2916.99
896.089	2920.69
896.386	2937.71
896.684	2978.2
896.981	2983.82
897.279	2972.75
897.576	2976.96
897.874	2917.2
898.171	2911.82
898.468	2906.28
898.765	2905.91
899.062	2937.17
899.359	2929.39
899.656	2927.66
899.953	2910.31
900.25	2902.5
900.547	2876.45
900.843	2865.5
901.14	2867.16
901.436	2876.47
901.733	2887.14
902.029	2886.5
902.325	2906.72
902.622	2889.13
902.918	2903.01
903.214	2898.74
903.51	2858.81
903.806	2841.03
904.102	2840.36
904.398	2851.1
904.694	2832.87
904.989	2853.18
905.285	2843.54
905.581	2831.99
905.876	2829.58
906.171	2805.38
906.467	2785.76
906.762	2799.11
907.057	2808.05
907.353	2822.05
907.648	2800.58
907.943	2781.19
908.238	2764.26
908.533	2755.67
908.827	2761.15
909.122	2741.13
909.417	2734.38
909.711	2738.34
910.006	2727.07
910.301	2704.15
910.595	2722.9
910.889	2729.35
911.184	2690.11
911.478	2675.05
911.772	2667.37
912.066	2646.35
912.36	2643.85
912.654	2647.16
912.948	2647.1
913.242	2654.21
913.536	2625.08
913.829	2605.02
914.123	2583.89
914.416	2540.58
914.71	2531.15
915.003	2539.01
915.297	2535.16
915.59	2542.44
915.883	2555.89
916.176	2565.5
916.469	2551.72
916.762	2520.25
917.055	2477.99
917.348	2453.11
917.641	2450.25
917.934	2451.51
918.226	2448.65
918.519	2444.34
918.811	2440.14
919.104	2437.95
919.396	2413.64
919.689	2387.89
919.981	2361.98
920.273	2340.01
920.565	2332.11
920.857	2309.62
921.149	2306.32
921.441	2298.6
921.733	2290.26
922.025	2265.04
922.316	2241.14
922.608	2233.05
922.9	2209.11
923.191	2201.25
923.483	2217.41
923.774	2208.02
924.065	2206.68
924.357	2192.39
924.648	2173.04
924.939	2152.16
925.23	2122.17
925.521	2092.94
925.812	2078.55
926.102	2071.88
926.393	2068.25
926.684	2071.87
926.975	2063.92
927.265	2052.77
927.556	2050.41
927.846	2034.84
928.136	2021.13
928.427	2007.75
928.717	1989.49
929.007	1982.47
929.297	1963
929.587	1959.23
929.877	1954.14
930.167	1956.9
930.457	1940.33
930.746	1913.91
931.036	1898.38
931.325	1874.67
931.615	1859.08
931.904	1856.36
932.194	1836.64
932.483	1827.44
932.772	1833.94
933.062	1827.33
933.351	1818.51
933.64	1797.78
933.929	1793.58
934.218	1776.67
934.506	1767.85
934.795	1753.71
935.084	1745.98
935.372	1734.13
935.661	1723.66
935.949	1708.99
936.238	1704.71
936.526	1674.79
936.815	1657.48
937.103	1643.14
937.391	1629.79
937.679	1618.09
937.967	1607.72
938.255	1600.08
938.543	1595.41
938.831	1585.92
939.118	1580.43
939.406	1571.25
939.693	1558.1
939.981	1540.39
940.268	1524.24
940.556	1503.65
940.843	1498.2
941.13	1493.63
941.418	1492.26
941.705	1488.54
941.992	1482.11
942.279	1470.46
942.566	1444.45
942.852	1423.2
943.139	1413.44
943.426	1406.13
943.712	1404.34
943.999	1402.72
944.285	1405.55
944.572	1395.55
944.858	1394.83
945.144	1391.62
945.431	1375.55
945.717	1363.89
946.003	1348.64
946.289	1323.58
946.575	1305.81
946.861	1301.86
947.146	1294.27
947.432	1294.84
947.718	1289.32
948.003	1282.74
948.289	1275.65
948.574	1255.64
948.86	1233.77
949.145	1220.29
949.43	1210.29
949.715	1211.84
950	1210.4
950.285	1208.52
950.57	1214.12
950.855	1211.51
951.14	1205.95
951.425	1202.23
951.709	1190.54
951.994	1172.31
952.278	1161.8
952.563	1143.15
952.847	1132.6
953.132	1130.98
953.416	1129.85
953.7	1131.97
953.984	1135.85
954.268	1129.27
954.552	1119.35
954.836	1108.09
955.12	1087.83
955.404	1076.4
955.687	1059.8
955.971	1052.79
956.254	1045.06
956.538	1040.97
956.821	1037.69
957.105	1036.37
957.388	1035.71
957.671	1026.12
957.954	1020.39
958.237	1010.45
958.52	1002.3
958.803	997.65
959.086	991.19
959.369	989.1
959.652	983.45
959.934	981.62
960.217	979.18
960.499	979.8
960.782	974.17
961.064	967.9
961.346	958.56
961.629	945.95
961.911	935.85
962.193	928.81
962.475	920.65
962.757	914.25
963.039	908.62
963.32	906.08
963.602	899.69
963.884	895.17
964.165	887.84
964.447	881.39
964.728	865.76
965.01	860.05
965.291	850.38
965.572	848.43
965.853	847.42
966.134	844.22
966.415	847.14
966.696	846.66
966.977	837.64
967.258	832.71
967.539	823.97
967.819	818.37
968.1	810.03
968.38	800.9
968.661	795.64
968.941	788.42
969.222	784.68
969.502	783.34
969.782	779.85
970.062	779.32
970.342	776.23
970.622	766.31
970.902	759.32
971.182	751.37
971.462	743.29
971.741	737.75
972.021	730.58
972.3	725.29
972.58	721.25
972.859	720.03
973.138	716.88
973.418	717.54
973.697	715.41
973.976	707.98
974.255	701.36
974.534	694.67
974.813	689.04
975.092	682.42
975.37	680.54
975.649	677.82
975.928	676.33
976.206	674.62
976.485	671.96
976.763	668.67
977.041	664.19
977.32	659.91
977.598	653.12
977.876	647.33
978.154	644.89
978.432	640.23
978.71	638.58
978.988	633.47
979.265	632.92
979.543	630.25
979.821	626.49
980.098	624.47
980.376	623.05
980.653	615.05
980.93	610.73
981.208	603.61
981.485	599.46
981.762	593.96
982.039	592.13
982.316	588.36
982.593	589.12
982.87	585.89
983.146	583.69
983.423	578.44
983.7	576.87
983.976	570.98
984.253	567.1
984.529	563.6
984.805	560.74
985.082	557.9
985.358	558.8
985.634	554.72
985.91	554.26
986.186	553.3
986.462	549.67
986.738	547.91
987.013	544.33
987.289	539.25
987.565	537.54
987.84	531.94
988.116	527.32
988.391	520.31
988.666	520.29
988.942	515.7
989.217	516.04
989.492	516.26
989.767	511.03
990.042	508.84
990.317	507.02
990.592	504.96
990.866	502.68
991.141	500.89
991.416	497.21
991.69	495.28
991.964	492.28
992.239	488.78
992.513	485.77
992.787	486.47
993.062	485.3
993.336	482.78
993.61	481.33
993.884	477.9
994.158	474.61
994.431	474.37
994.705	469.59
994.979	467.02
995.252	466.36
995.526	463.6
995.799	460.24
996.073	460.8
996.346	458.85
996.619	456.15
996.892	456.33
997.165	454.14
997.438	451.39
997.711	451.54
997.984	448.88
998.257	445.64
998.53	444.49
998.802	439.26
999.075	440.17
999.347	437.51
999.62	435.71
999.892	435.94
1000.165	436.89
1000.437	433.19
1000.709	431.6
1000.981	431.48
1001.253	431.25
1001.525	424.66
1001.797	425.55
1002.068	425
1002.34	422.2
1002.612	419.89
1002.883	419.93
1003.155	420.03
1003.426	419.58
1003.698	416.19
1003.969	415.78
1004.24	414.94
1004.511	412.64
1004.782	412.19
1005.053	410.3
1005.324	408.56
1005.595	406.45
1005.866	405.6
1006.136	405.61
1006.407	402.67
1006.678	400.67
1006.948	400.13
1007.218	401.34
1007.489	399.64
1007.759	398.21
1008.029	394.97
1008.299	395.03
1008.569	396.05
1008.839	394.3
1009.109	392.32
1009.379	392.87
1009.649	391.37
1009.918	388.15
1010.188	388.59
1010.458	387.65
1010.727	389.52
1010.996	386.65
1011.266	389
1011.535	385.92
1011.804	383.69
1012.073	382.89
1012.342	384.03
1012.611	382.74
1012.88	380.82
1013.149	380.76
1013.417	380.26
1013.686	378.05
1013.955	378.35
1014.223	377.68
1014.492	378.09
1014.76	377.4
1015.028	376.72
1015.296	377.02
1015.565	372.81
1015.833	375.23
1016.101	374.63
1016.368	373.67
1016.636	372.08
1016.904	373.78
1017.172	372.95
1017.439	369.43
1017.707	372.31
1017.974	368.55
1018.242	368.92
1018.509	368.51
1018.776	368.04
1019.044	368.08
1019.311	369.42
1019.578	366.85
1019.845	366.79
1020.112	366.92
1020.378	366.92
1020.645	366.92
