Data from 190718_Ar_26K_film_FLMS138901_16-01-18-261.txt Node
Date: Thu Jul 18 16:01:18 EDT 2019
User: pSAM
Spectrometer: FLMS13890
Trigger mode: 0
Integration Time (sec): 5.000000E-3
Scans to average: 1000
Electric dark correction enabled: true
Nonlinearity correction enabled: false
Boxcar width: 0
XAxis mode: Wavelengths
Number of Pixels in Spectrum: 2048
>>>>>Begin Spectral Data<<<<<
342.097	-63.29
342.483	-63.29
342.868	-63.29
343.254	-101.71
343.639	-105.16
344.025	-104.66
344.41	-98.47
344.796	-91.97
345.181	-80.63
345.567	-68.67
345.952	-54.33
346.337	-37.02
346.722	-19.7
347.107	0.71
347.493	20.43
347.878	40.13
348.263	59.47
348.648	79.79
349.033	99.6
349.418	118.25
349.802	137.07
350.187	154.85
350.572	174.41
350.957	196.35
351.342	232.08
351.726	251.6
352.111	263.16
352.495	279.94
352.88	290.44
353.264	301.95
353.649	313.18
354.033	322.34
354.418	332.48
354.802	338.07
355.186	346.5
355.57	352.34
355.955	359.11
356.339	361.71
356.723	364.38
357.107	369.02
357.491	387.96
357.875	373.35
358.259	374.49
358.643	374.42
359.026	375.65
359.41	374.41
359.794	375.3
360.178	374.51
360.561	373.94
360.945	374.08
361.329	373.68
361.712	371.87
362.096	369.12
362.479	368.66
362.862	364.9
363.246	364.9
363.629	366.19
364.012	363.74
364.396	361.91
364.779	360.5
365.162	359.59
365.545	357.01
365.928	355.6
366.311	355.12
366.694	355.68
367.077	355.41
367.46	353.79
367.843	354.11
368.226	351.83
368.608	354.14
368.991	353.82
369.374	354.28
369.756	353.35
370.139	354.46
370.521	352.23
370.904	354.72
371.286	354.74
371.669	355.44
372.051	354.81
372.433	356.3
372.816	353.93
373.198	357.26
373.58	357.03
373.962	358.82
374.344	360.52
374.726	361.62
375.108	361.79
375.49	361.97
375.872	362.77
376.254	361.8
376.636	366.06
377.018	364.48
377.399	367.14
377.781	368.1
378.163	369.35
378.544	368.9
378.926	371.43
379.307	370.12
379.689	371.46
380.07	374.87
380.452	373.93
380.833	374.51
381.214	375.91
381.596	378.27
381.977	380.23
382.358	381.05
382.739	379.12
383.12	380.51
383.501	381.05
383.882	383.87
384.263	383.28
384.644	383.46
385.025	385.12
385.406	386.74
385.787	387.78
386.167	386.5
386.548	389.56
386.929	391.23
387.309	393.92
387.69	394.62
388.07	397.79
388.451	397.19
388.831	399.78
389.211	399.16
389.592	395.8
389.972	398.26
390.352	398.77
390.733	400.85
391.113	399.75
391.493	401.01
391.873	404.17
392.253	404.7
392.633	410.01
393.013	408.91
393.393	409.53
393.772	410.95
394.152	411.56
394.532	410.91
394.912	412.9
395.291	411.67
395.671	413.4
396.05	411.25
396.43	413.71
396.809	411.85
397.189	416.05
397.568	417.33
397.948	419.86
398.327	422.41
398.706	423.05
399.085	422.71
399.465	424.95
399.844	423.85
400.223	423.36
400.602	424.37
400.981	423.67
401.36	425.58
401.739	425.32
402.117	427.69
402.496	426.87
402.875	426.87
403.254	429.61
403.632	431.66
404.011	430.93
404.39	436.24
404.768	437.02
405.147	439.97
405.525	440.1
405.903	441.46
406.282	442.36
406.66	442.88
407.038	440.73
407.417	439.04
407.795	442.59
408.173	442.07
408.551	444.68
408.929	444.02
409.307	445.42
409.685	447.94
410.063	447.02
410.441	447.09
410.818	451.38
411.196	450.9
411.574	453.1
411.952	457.03
412.329	458.07
412.707	465.22
413.084	462.99
413.462	466.54
413.839	468.71
414.217	465.51
414.594	464.04
414.971	465.01
415.349	468.56
415.726	468.26
416.103	467.71
416.48	468.67
416.857	470.67
417.234	472.82
417.611	473.82
417.988	474.29
418.365	474.24
418.742	475.41
419.119	478.65
419.495	479.21
419.872	478.98
420.249	489.91
420.625	487.03
421.002	490.65
421.379	490.57
421.755	497.82
422.131	498.19
422.508	499.81
422.884	502.04
423.26	505.01
423.637	505.61
424.013	503.56
424.389	503.92
424.765	500.24
425.141	501.73
425.517	501.46
425.893	500.68
426.269	501.57
426.645	504.3
427.021	510.26
427.397	513.08
427.772	515.83
428.148	514.74
428.524	518.4
428.899	514.93
429.275	519.27
429.651	527.32
430.026	527.77
430.401	533.3
430.777	532.02
431.152	531.96
431.527	527.92
431.903	530.7
432.278	529.37
432.653	530.09
433.028	531.19
433.403	540.82
433.778	549.12
434.153	548.14
434.528	545.87
434.903	547.85
435.278	553
435.653	558.26
436.027	561.29
436.402	560.63
436.777	562.33
437.151	560.32
437.526	563.78
437.9	563.76
438.275	569.78
438.649	567.95
439.023	570.53
439.398	573.77
439.772	570.81
440.146	572.89
440.52	578.58
440.895	584.48
441.269	594.44
441.643	599.81
442.017	598.22
442.391	598
442.765	598.58
443.138	599.4
443.512	602.13
443.886	604.42
444.26	605.66
444.633	607.87
445.007	609.42
445.38	609.26
445.754	610.13
446.127	617.1
446.501	617.12
446.874	616.17
447.248	614.67
447.621	614.46
447.994	617.23
448.367	619.72
448.741	619.51
449.114	618.19
449.487	623.97
449.86	623.53
450.233	630.45
450.606	626.72
450.978	627.88
451.351	646.9
451.724	629.09
452.097	631.26
452.469	634.15
452.842	633.33
453.215	636.06
453.587	636.45
453.96	637.06
454.332	640.6
454.704	642.08
455.077	645.77
455.449	651.02
455.821	650.09
456.194	658.06
456.566	658.65
456.938	663.73
457.31	668.2
457.682	676.83
458.054	678.73
458.426	682.24
458.798	686.6
459.17	688.52
459.541	689.96
459.913	688.85
460.285	687.27
460.656	688.73
461.028	690.06
461.399	692.41
461.771	694.51
462.142	700.03
462.514	706.02
462.885	712.81
463.256	724
463.628	729.2
463.999	736.43
464.37	747.11
464.741	747.63
465.112	744.19
465.483	749.64
465.854	755.28
466.225	751.27
466.596	752.6
466.967	761.78
467.338	759.8
467.708	770.54
468.079	774.63
468.45	776.85
468.82	781.24
469.191	784.79
469.561	781.06
469.932	781.08
470.302	785.49
470.673	796.22
471.043	801.09
471.413	805.93
471.783	816.68
472.154	827.4
472.524	836.39
472.894	849.39
473.264	858.12
473.634	860.47
474.004	861.94
474.374	874.08
474.743	879.79
475.113	891.64
475.483	898.82
475.853	908.31
476.222	917.25
476.592	934.76
476.961	927.58
477.331	935.6
477.7	945.25
478.07	963.1
478.439	973
478.808	982.94
479.178	986.32
479.547	1000.27
479.916	1007.48
480.285	1024.57
480.654	1028.77
481.023	1039.31
481.392	1048.78
481.761	1057.3
482.13	1072.61
482.499	1082.51
482.867	1094.47
483.236	1115.4
483.605	1134.04
483.973	1143.69
484.342	1168.67
484.71	1178.28
485.079	1220.88
485.447	1353.41
485.816	1467.01
486.184	1514.85
486.552	1428.08
486.921	1341.09
487.289	1288.18
487.657	1273.09
488.025	1274.56
488.393	1275.31
488.761	1287.45
489.129	1306.9
489.497	1317.59
489.865	1342.54
490.233	1357.65
490.6	1371.14
490.968	1364.43
491.336	1374.54
491.703	1385.94
492.071	1399.04
492.438	1409.51
492.806	1424.58
493.173	1447.09
493.541	1454.36
493.908	1457.12
494.275	1462.49
494.642	1465.87
495.01	1469.78
495.377	1480.34
495.744	1490.34
496.111	1517.65
496.478	1543.45
496.845	1543.56
497.211	1547.8
497.578	1554.13
497.945	1568.37
498.312	1592.16
498.678	1607.94
499.045	1630.65
499.412	1631.1
499.778	1636.25
500.145	1633.05
500.511	1642.26
500.878	1663.81
501.244	1683.14
501.61	1688.96
501.976	1700.42
502.343	1704.47
502.709	1726.41
503.075	1728.89
503.441	1731.26
503.807	1738.47
504.173	1739.96
504.539	1746.72
504.905	1758.49
505.27	1779.61
505.636	1790.32
506.002	1804.67
506.367	1805.72
506.733	1817.37
507.099	1817.74
507.464	1832.99
507.829	1838.61
508.195	1863.8
508.56	1873.2
508.926	1874.19
509.291	1877.03
509.656	1885.26
510.021	1899.43
510.386	1911.1
510.751	1927.45
511.116	1936.61
511.481	1948.83
511.846	1964.66
512.211	1966.03
512.576	1978.9
512.941	1982.79
513.305	1991.85
513.67	2002.01
514.035	2009.47
514.399	2031.97
514.764	2030.48
515.128	2047.45
515.493	2058.11
515.857	2064.1
516.221	2070.96
516.585	2079.39
516.95	2093.46
517.314	2099.82
517.678	2106.14
518.042	2118.91
518.406	2140.65
518.77	2144.84
519.134	2147.07
519.498	2173.23
519.862	2178.66
520.225	2169.23
520.589	2185.34
520.953	2200.14
521.316	2215.65
521.68	2225.13
522.043	2239.25
522.407	2243.61
522.77	2256.16
523.134	2280.74
523.497	2278.68
523.86	2303.44
524.223	2315.6
524.587	2327.89
524.95	2332.86
525.313	2344.88
525.676	2361.95
526.039	2384.53
526.402	2382.9
526.765	2402.7
527.127	2430.02
527.49	2448.11
527.853	2454.84
528.215	2458.53
528.578	2481.26
528.941	2484.58
529.303	2507.54
529.666	2522.49
530.028	2544.33
530.39	2545.76
530.753	2544.95
531.115	2563.62
531.477	2593.34
531.839	2608.35
532.201	2618.72
532.564	2644.92
532.926	2665.02
533.287	2695.71
533.649	2721.42
534.011	2729.37
534.373	2746.49
534.735	2767.9
535.097	2778.85
535.458	2791.94
535.82	2811.53
536.181	2823.24
536.543	2826.96
536.904	2825.82
537.266	2869.5
537.627	2891.81
537.988	2915.21
538.35	2934.79
538.711	2962.46
539.072	2987.62
539.433	2991.56
539.794	3015.34
540.155	3024.47
540.516	3037.66
540.877	3057.25
541.238	3082.51
541.599	3116.7
541.959	3144.45
542.32	3177.89
542.681	3197.29
543.041	3204.4
543.402	3220.08
543.762	3243.8
544.123	3247.72
544.483	3276.31
544.844	3291.86
545.204	3294.46
545.564	3301.68
545.924	3324.49
546.284	3339.33
546.644	3343.42
547.004	3358.71
547.364	3388.78
547.724	3418.62
548.084	3422.88
548.444	3449.85
548.804	3456.01
549.164	3462.41
549.523	3469.23
549.883	3483.01
550.242	3491.15
550.602	3504.93
550.961	3523.5
551.321	3538.98
551.68	3560.56
552.04	3566.41
552.399	3593.59
552.758	3599.63
553.117	3601.73
553.476	3648.57
553.835	3660.35
554.194	3673.7
554.553	3669.39
554.912	3662.32
555.271	3699.3
555.63	3725.65
555.989	3749.16
556.347	3754.28
556.706	3775.45
557.065	3788.61
557.423	3810.45
557.782	3836.96
558.14	3839.27
558.499	3849.87
558.857	3861.16
559.215	3880.31
559.573	3905.08
559.932	3930.36
560.29	3964.41
560.648	3986.01
561.006	3999.23
561.364	3998.36
561.722	3996.83
562.08	4042.36
562.438	4033.22
562.795	4078.06
563.153	4105.63
563.511	4109.46
563.868	4133.03
564.226	4149.95
564.583	4191.53
564.941	4160.81
565.298	4195.01
565.656	4192.05
566.013	4191.06
566.37	4220.47
566.727	4282.65
567.085	4336.22
567.442	4364.43
567.799	4406.78
568.156	4428.75
568.513	4465.21
568.87	4530.78
569.226	4604.19
569.583	4695.65
569.94	4730.3
570.297	4752.4
570.653	4748.28
571.01	4802.75
571.366	4885.89
571.723	4928.22
572.079	4903.24
572.436	4900.29
572.792	4919.79
573.148	5013.8
573.505	5093.3
573.861	5193.77
574.217	5202.15
574.573	5229.8
574.929	5218.48
575.285	5251.2
575.641	5298.54
575.997	5348.52
576.352	5388.55
576.708	5398.4
577.064	5477.76
577.42	5601.1
577.775	5672.18
578.131	5687
578.486	5656.05
578.842	5567.96
579.197	5588.72
579.552	5660.85
579.908	5776.36
580.263	5821.32
580.618	5779.41
580.973	5860.86
581.328	6102.26
581.683	6336.91
582.038	6374.74
582.393	6161.98
582.748	5921.09
583.103	5721.14
583.458	5636.76
583.812	5668.34
584.167	5780.06
584.522	5911.82
584.876	6023.35
585.231	6061.5
585.585	6078.74
585.939	5999.7
586.294	5949.52
586.648	5945.91
587.002	5934.95
587.356	6049.63
587.711	6183.49
588.065	6217.18
588.419	6233.14
588.773	6171.12
589.127	6059.23
589.48	6010.2
589.834	5928.08
590.188	5945.28
590.542	5969.22
590.895	5938.4
591.249	5986.03
591.603	5968.18
591.956	5985.33
592.309	6046.26
592.663	6140.52
593.016	6292.41
593.369	6364.42
593.723	6282.41
594.076	6240.66
594.429	6301.88
594.782	6394.9
595.135	6488.78
595.488	6483.46
595.841	6425.81
596.194	6334.14
596.547	6259.43
596.899	6270.09
597.252	6299.57
597.605	6354.61
597.957	6368.96
598.31	6376.87
598.662	6427.95
599.015	6437.94
599.367	6510.41
599.719	6486.71
600.072	6527.14
600.424	6534.24
600.776	6620.87
601.128	6678.48
601.48	6676.34
601.832	6691.39
602.184	6692.16
602.536	6714.9
602.888	6829.56
603.24	6924.49
603.592	6958.05
603.943	6898.06
604.295	6840.32
604.646	6746.62
604.998	6766.9
605.349	6821.17
605.701	6859.78
606.052	6868.59
606.404	6858.96
606.755	6857.82
607.106	6908.36
607.457	6920.86
607.808	6902.05
608.159	6920.4
608.51	6894.35
608.861	6919.07
609.212	6879.81
609.563	6985.04
609.914	7061.46
610.265	7091.34
610.615	7165.84
610.966	7168.52
611.316	7209.45
611.667	7251.88
612.017	7284.21
612.368	7174.04
612.718	7245.22
613.068	7248.63
613.419	7270.68
613.769	7256.28
614.119	7290.33
614.469	7340.81
614.819	7266.37
615.169	7269.31
615.519	7308.38
615.869	7309.85
616.219	7333.9
616.568	7289.14
616.918	7268.3
617.268	7333.69
617.617	7370.21
617.967	7428.02
618.316	7390.83
618.666	7380.13
619.015	7385.02
619.364	7366.57
619.714	7453.27
620.063	7495.73
620.412	7536.41
620.761	7498.67
621.11	7513.74
621.459	7472.98
621.808	7525.33
622.157	7633.85
622.506	7670.72
622.855	7702.55
623.203	7724.38
623.552	7696.76
623.901	7724.6
624.249	7698.9
624.598	7757.66
624.946	7749.27
625.295	7690.07
625.643	7690.26
625.991	7757.2
626.34	7728.89
626.688	7759.76
627.036	7869.13
627.384	7862.2
627.732	7887.03
628.08	7909.47
628.428	7884.19
628.776	7882.9
629.124	7957.47
629.471	7980.98
629.819	8015.97
630.167	8020.39
630.514	8018.88
630.862	7989.6
631.209	8016.16
631.557	8027.08
631.904	8032.53
632.251	8045.42
632.599	8027.86
632.946	8094.8
633.293	8154.25
633.64	8169.21
633.987	8174.61
634.334	8171.37
634.681	8164.27
635.028	8211.78
635.375	8191.03
635.722	8225.22
636.068	8311.43
636.415	8416.2
636.762	8451.72
637.108	8488.68
637.455	8459.3
637.801	8431.99
638.147	8473.52
638.494	8445.73
638.84	8507.55
639.186	8496.61
639.532	8528.35
639.878	8544.91
640.225	8591.82
640.571	8589.96
640.916	8581.14
641.262	8585.77
641.608	8554.6
641.954	8615.17
642.3	8674.75
642.645	8664.45
642.991	8695.22
643.337	8731.9
643.682	8761.78
644.028	8837.53
644.373	8795.66
644.718	8801.62
645.064	8810.68
645.409	8830.67
645.754	8873.01
646.099	8883.67
646.444	8842.95
646.789	8889.76
647.134	8892.8
647.479	8955.94
647.824	8981.2
648.169	9017.92
648.513	9054.59
648.858	9040.38
649.203	9116.05
649.547	9139.26
649.892	9154.79
650.236	9170.86
650.581	9211.84
650.925	9212.44
651.269	9244.61
651.613	9297.13
651.958	9296.79
652.302	9330.19
652.646	9322.52
652.99	9299.98
653.334	9327.45
653.678	9289.62
654.022	9400.37
654.365	9400.25
654.709	9413.8
655.053	9477.77
655.396	10001.42
655.74	14117.81
656.083	19261.18
656.427	22023.87
656.77	20818.81
657.114	15528.22
657.457	12072.74
657.8	10487.47
658.143	9849.43
658.486	9628.36
658.83	9622.93
659.173	9596.99
659.516	9633.24
659.858	9613.94
660.201	9611.55
660.544	9618.38
660.887	9683.94
661.229	9687.29
661.572	9606.88
661.915	9639.73
662.257	9663.82
662.6	9680.92
662.942	9637.96
663.284	9618.31
663.627	9634.11
663.969	9634.93
664.311	9708.84
664.653	9713.28
664.995	9761.48
665.337	9774.17
665.679	9709.8
666.021	9757.57
666.363	9718.92
666.705	9735.09
667.046	9735.68
667.388	9694.87
667.73	9723.72
668.071	9773.24
668.413	9798.87
668.754	9840.21
669.096	9776.24
669.437	9766.37
669.778	9763.44
670.119	9776.58
670.461	9752.69
670.802	9862.92
671.143	9869.26
671.484	9917.4
671.825	9899.5
672.165	9938.57
672.506	9963.81
672.847	9963.9
673.188	9985.67
673.528	9944.43
673.869	9872.33
674.21	9954.84
674.55	9937.85
674.89	9909.97
675.231	9925.77
675.571	9903.31
675.911	9901.7
676.252	9966.53
676.592	10037.76
676.932	10002.23
677.272	10000.69
677.612	10070.79
677.952	10066.64
678.292	10108.93
678.631	10102.11
678.971	10086.47
679.311	10137.89
679.651	10109.02
679.99	10168.79
680.33	10192.65
680.669	10174.61
681.009	10121.85
681.348	10198.54
681.687	10269.28
682.026	10253.95
682.366	10250.02
682.705	10340.05
683.044	10329.96
683.383	10298.33
683.722	10317.16
684.061	10237.21
684.4	10242.38
684.738	10299.65
685.077	10384.13
685.416	10371.41
685.754	10419.49
686.093	10449.24
686.431	10496.84
686.77	10434.44
687.108	10394.88
687.447	10334.92
687.785	10409.18
688.123	10346.01
688.461	10388.68
688.799	10344.88
689.137	10349.56
689.475	10323.14
689.813	10335.35
690.151	10435.22
690.489	10455.79
690.827	10462.85
691.164	10463.39
691.502	10456
691.84	10405.46
692.177	10485.27
692.515	10487.92
692.852	10365.28
693.189	10468.94
693.527	10505.14
693.864	10527.6
694.201	10524.35
694.538	10481.24
694.875	10443.28
695.212	10370.03
695.549	10437.24
695.886	10438.19
696.223	10495.9
696.56	10533.61
696.897	10471.17
697.233	10497.09
697.57	10538.78
697.906	10624.97
698.243	10580.8
698.579	10583.83
698.916	10603.83
699.252	10515.4
699.588	10556.17
699.924	10588.29
700.261	10533.21
700.597	10581.69
700.933	10612.68
701.269	10509.14
701.605	10603.19
701.941	10534.63
702.276	10552.37
702.612	10542.9
702.948	10620.99
703.283	10665.17
703.619	10684.85
703.954	10696.27
704.29	10641.3
704.625	10687.6
704.961	10607.59
705.296	10619.34
705.631	10622.03
705.966	10580.38
706.301	10595.68
706.637	10632.06
706.972	10701.1
707.306	10718.6
707.641	10764.87
707.976	10709.99
708.311	10767.42
708.646	10850.8
708.98	10713.8
709.315	10673.09
709.649	10656.94
709.984	10704.45
710.318	10666.51
710.653	10769.36
710.987	10763.84
711.321	10760.3
711.655	10740.71
711.989	10717.34
712.324	10723.93
712.658	10703.83
712.992	10743.33
713.325	10773
713.659	10828.93
713.993	10733.65
714.327	10787.98
714.66	10835.7
714.994	10803.65
715.328	10810.94
715.661	10830.78
715.994	10799.53
716.328	10682.67
716.661	10739.57
716.994	10795.52
717.328	10690.37
717.661	10653.13
717.994	10631.93
718.327	10698.83
718.66	10677.26
718.993	10589.85
719.325	10579.07
719.658	10564.64
719.991	10600.64
720.324	10585.4
720.656	10503.26
720.989	10540.87
721.321	10661.32
721.654	10670.91
721.986	10639.09
722.318	10645.19
722.651	10682.99
722.983	10628.81
723.315	10662.21
723.647	10651.91
723.979	10620.86
724.311	10646.07
724.643	10618.15
724.975	10580.19
725.307	10573.58
725.638	10646.88
725.97	10596.78
726.302	10711.54
726.633	10732.37
726.965	10753.5
727.296	10702.27
727.628	10691.24
727.959	10694.14
728.29	10716.02
728.621	10602.47
728.952	10638.35
729.284	10580.78
729.615	10561.24
729.945	10501.66
730.276	10551.55
730.607	10605.19
730.938	10572.32
731.269	10628.3
731.599	10660.64
731.93	10672.09
732.261	10588.47
732.591	10558.57
732.922	10546.12
733.252	10473.36
733.582	10436.07
733.912	10473.12
734.243	10414.2
734.573	10397.25
734.903	10494.48
735.233	10388.48
735.563	10371.07
735.893	10404.76
736.223	10361.99
736.552	10394.6
736.882	10322.33
737.212	10288.95
737.541	10290.93
737.871	10299.68
738.2	10280.41
738.53	10185.05
738.859	10136.35
739.188	10175.3
739.518	10227.16
739.847	10237.35
740.176	10173.77
740.505	10183.59
740.834	10184.88
741.163	10148.1
741.492	9994.05
741.821	9919.14
742.15	9870.99
742.478	9943.41
742.807	9977.7
743.136	9991.93
743.464	9925.2
743.793	9850.2
744.121	9803.33
744.449	9801.81
744.778	9855.77
745.106	9809.9
745.434	9760.71
745.762	9683.52
746.09	9665.25
746.418	9713.45
746.746	9654.7
747.074	9675.7
747.402	9774.4
747.73	9778.46
748.057	9805.86
748.385	9746.77
748.712	9689.95
749.04	9604.72
749.367	9545.89
749.695	9546.05
750.022	9557.74
750.349	9567.74
750.677	9605.75
751.004	9577.98
751.331	9521.59
751.658	9513.89
751.985	9475.1
752.312	9406.36
752.639	9334.35
752.966	9326.1
753.292	9221.57
753.619	9292.79
753.946	9317.63
754.272	9227.19
754.599	9195.79
754.925	9193.42
755.251	9137.5
755.578	9184.31
755.904	9171.99
756.23	9182.57
756.556	9187.78
756.882	9180.84
757.208	9052.78
757.534	9085.85
757.86	9116.44
758.186	9184.68
758.512	9194.53
758.838	9221.91
759.163	9133.62
759.489	9053.95
759.814	8947.23
760.14	8931
760.465	9015.12
760.791	8847.33
761.116	8787.9
761.441	8826.41
761.766	8917.94
762.092	8872.61
762.417	8836.56
762.742	8837.02
763.066	8809.31
763.391	8891.97
763.716	8852.36
764.041	8812.94
764.366	8779.18
764.69	8798.43
765.015	8790.97
765.339	8791.37
765.664	8738.46
765.988	8695.04
766.312	8637.94
766.637	8502.5
766.961	8444.04
767.285	8506.63
767.609	8486.71
767.933	8392.95
768.257	8413.74
768.581	8409.33
768.905	8473.09
769.229	8461.51
769.552	8409.05
769.876	8410.01
770.2	8352.84
770.523	8348.15
770.847	8261.18
771.17	8200.51
771.493	8208.58
771.817	8262.55
772.14	8114.73
772.463	8077.93
772.786	8132.16
773.109	8086.84
773.432	8118.89
773.755	8112.28
774.078	8040.26
774.401	7998.66
774.724	7955.96
775.046	7981.85
775.369	7981.25
775.692	7939.3
776.014	7950.39
776.336	7857.88
776.659	7835.03
776.981	7860.75
777.303	7817.54
777.626	7732.2
777.948	7731.38
778.27	7737.21
778.592	7772.35
778.914	7780.78
779.236	7696.3
779.557	7718.21
779.879	7753.04
780.201	7741.11
780.523	7698.07
780.844	7609.66
781.166	7617.95
781.487	7696.03
781.809	7709.21
782.13	7684.78
782.451	7726.46
782.772	7799.89
783.094	7757.55
783.415	7773.82
783.736	7737.19
784.057	7761.57
784.378	7765.3
784.698	7725.73
785.019	7733.93
785.34	7625.61
785.661	7689.09
785.981	7708.14
786.302	7735.66
786.622	7800.82
786.943	7861.38
787.263	7800.1
787.583	7806.3
787.903	7894.46
788.224	7906.9
788.544	7967.79
788.864	7917.4
789.184	7981.83
789.504	8015.91
789.824	8084.45
790.143	8086.35
790.463	8033.47
790.783	7933.18
791.102	7893.19
791.422	7934.81
791.741	7893.74
792.061	7903.91
792.38	7921.34
792.699	7832.34
793.019	7853.74
793.338	7800.38
793.657	7763.78
793.976	7880.46
794.295	7874.32
794.614	7902.6
794.933	7890.84
795.252	7844.46
795.57	7802.55
795.889	7827.67
796.208	7829.65
796.526	7816.3
796.845	7814.24
797.163	7776.03
797.482	7807.92
797.8	7841.28
798.118	7843
798.436	7849.16
798.754	7821.31
799.073	7733.44
799.391	7695.18
799.708	7699.93
800.026	7703.61
800.344	7729.55
800.662	7630.12
800.98	7554.44
801.297	7556.58
801.615	7634.17
801.932	7626.6
802.25	7611.56
802.567	7550.68
802.884	7489.83
803.202	7479.97
803.519	7498.22
803.836	7538.49
804.153	7481.46
804.47	7474.2
804.787	7372.6
805.104	7355.66
805.421	7348
805.737	7301.34
806.054	7301.85
806.371	7340.48
806.687	7323.41
807.004	7272.58
807.32	7292.62
807.637	7281.1
807.953	7247.27
808.269	7268.63
808.585	7250.36
808.902	7189.6
809.218	7168.42
809.534	7162.83
809.85	7132.59
810.165	7095.17
810.481	7086.8
810.797	7014.86
811.113	7036.09
811.428	7048.8
811.744	7093.06
812.059	7070.66
812.375	7023.61
812.69	6957.88
813.006	6894.43
813.321	6856.79
813.636	6878.18
813.951	6917.31
814.266	6925.85
814.581	6857.81
814.896	6830.14
815.211	6812.55
815.526	6748.13
815.841	6722.79
816.155	6756.5
816.47	6696.72
816.784	6724.86
817.099	6678.16
817.413	6671.85
817.728	6677
818.042	6636.59
818.356	6680.14
818.67	6719.45
818.985	6677.78
819.299	6601.15
819.613	6607.48
819.926	6539
820.24	6509.63
820.554	6536.97
820.868	6554.17
821.182	6466.34
821.495	6473.04
821.809	6362.48
822.122	6292.9
822.436	6296.14
822.749	6324.59
823.062	6308.87
823.376	6292.9
823.689	6224.71
824.002	6214.64
824.315	6165.87
824.628	6206.52
824.941	6175.27
825.254	6154.32
825.566	6103.7
825.879	6102.94
826.192	6105.67
826.504	6108.1
826.817	6138.83
827.129	6129.25
827.442	6052.89
827.754	6071.02
828.066	6036.3
828.379	5956.23
828.691	6006.92
829.003	5994.77
829.315	5977.43
829.627	5956.34
829.939	5896.47
830.251	5888.55
830.562	5829.11
830.874	5832.21
831.186	5810.21
831.497	5819.77
831.809	5818.95
832.12	5802.27
832.432	5733.81
832.743	5739.11
833.054	5700.81
833.365	5719.43
833.676	5736.39
833.988	5700.22
834.299	5650.35
834.61	5644.67
834.92	5659.11
835.231	5657.84
835.542	5684.49
835.853	5673.74
836.163	5648.4
836.474	5556.86
836.784	5491.75
837.095	5494.07
837.405	5464.18
837.715	5493.16
838.026	5506.07
838.336	5461.2
838.646	5434.64
838.956	5372.91
839.266	5326.91
839.576	5265.08
839.886	5276.34
840.195	5335.68
840.505	5357.05
840.815	5355.58
841.124	5335.03
841.434	5279.58
841.743	5222.38
842.053	5194.36
842.362	5147.12
842.671	5178.74
842.981	5184.33
843.29	5134.32
843.599	5112.76
843.908	5056.29
844.217	5011.49
844.526	5053.15
844.835	5078.58
845.143	5062.34
845.452	4998.19
845.761	5000.27
846.069	4956.76
846.378	4959.35
846.686	4902.73
846.995	4896.07
847.303	4898.17
847.611	4914.05
847.919	4844.09
848.227	4797.79
848.535	4722.85
848.843	4737.42
849.151	4708.69
849.459	4757.07
849.767	4748.47
850.075	4727.47
850.382	4672.29
850.69	4660.49
850.998	4644.16
851.305	4592.2
851.612	4578.55
851.92	4587.09
852.227	4594.94
852.534	4584.64
852.841	4543
853.148	4518.11
853.455	4548.64
853.762	4529.93
854.069	4518.13
854.376	4520.06
854.683	4525.98
854.99	4486.32
855.296	4426.11
855.603	4379.71
855.909	4373.15
856.216	4363.02
856.522	4374.29
856.828	4352.77
857.135	4334.05
857.441	4303.58
857.747	4263.3
858.053	4234.13
858.359	4185.84
858.665	4205.63
858.971	4215.07
859.276	4198.65
859.582	4168.62
859.888	4149.25
860.193	4116.6
860.499	4099.85
860.804	4083.69
861.11	4071.64
861.415	4095.13
861.72	4093.8
862.026	4073.65
862.331	4055.88
862.636	4012.8
862.941	3962.18
863.246	3920.36
863.551	3926.42
863.855	3940.99
864.16	3942.15
864.465	3900.65
864.769	3863.18
865.074	3829.32
865.378	3783.62
865.683	3769.45
865.987	3817.18
866.291	3814.21
866.596	3811.14
866.9	3773.3
867.204	3756.08
867.508	3742.66
867.812	3745.99
868.116	3750.85
868.42	3710.46
868.723	3659.81
869.027	3655.28
869.331	3638.22
869.634	3598.61
869.938	3530.38
870.241	3543.25
870.544	3563.75
870.848	3570.51
871.151	3574.7
871.454	3567.32
871.757	3544.25
872.06	3496.7
872.363	3457.78
872.666	3463.84
872.969	3461.39
873.272	3471.07
873.574	3439.77
873.877	3405.97
874.18	3347.33
874.482	3310.69
874.785	3315.6
875.087	3296.13
875.389	3299.49
875.692	3327.1
875.994	3350.38
876.296	3334.26
876.598	3306.06
876.9	3269.71
877.202	3234.35
877.504	3205.62
877.805	3199.18
878.107	3209.33
878.409	3175.26
878.71	3195.09
879.012	3203.97
879.313	3174.65
879.615	3193.27
879.916	3149.2
880.217	3108.08
880.518	3064.91
880.82	3069.39
881.121	3063.27
881.422	3061.66
881.723	3037.79
882.023	3012.49
882.324	2994.93
882.625	2955.17
882.926	2952.48
883.226	2998.23
883.527	2996.84
883.827	2990.25
884.128	2968.76
884.428	2960.23
884.728	2916.38
885.028	2877.74
885.328	2847.56
885.629	2816.49
885.929	2823.7
886.228	2830.13
886.528	2806.78
886.828	2775.23
887.128	2731.95
887.427	2691.32
887.727	2664.4
888.027	2655.65
888.326	2665.98
888.625	2684.1
888.925	2659.16
889.224	2663.69
889.523	2624.42
889.822	2599.92
890.121	2557.99
890.42	2538.89
890.719	2546.26
891.018	2534.27
891.317	2550.38
891.616	2555.25
891.914	2539.34
892.213	2523.67
892.512	2507.49
892.81	2503.65
893.108	2490.73
893.407	2508.48
893.705	2537.16
894.003	2541.48
894.301	2526.23
894.599	2519.59
894.897	2505.73
895.195	2483.35
895.493	2468.64
895.791	2477.23
896.089	2497.04
896.386	2497.92
896.684	2513.06
896.981	2514.19
897.279	2497.37
897.576	2496.99
897.874	2460.95
898.171	2463.87
898.468	2466.03
898.765	2477.79
899.062	2502.09
899.359	2495.53
899.656	2476.6
899.953	2454.78
900.25	2444.21
900.547	2426.92
900.843	2413.88
901.14	2414.51
901.436	2416.33
901.733	2417.98
902.029	2429.12
902.325	2426.77
902.622	2411.69
902.918	2428.14
903.214	2415.64
903.51	2384.27
903.806	2394.28
904.102	2421.32
904.398	2425.48
904.694	2414.21
904.989	2430.99
905.285	2418.62
905.581	2394.88
905.876	2392.16
906.171	2384.28
906.467	2376.23
906.762	2372.6
907.057	2352.59
907.353	2355.55
907.648	2345.16
907.943	2335.77
908.238	2335.79
908.533	2322.12
908.827	2317.97
909.122	2308.74
909.417	2308.35
909.711	2306.27
910.006	2311.39
910.301	2319.08
910.595	2340.5
910.889	2349.35
911.184	2309.75
911.478	2298.07
911.772	2296.36
912.066	2283.23
912.36	2265.41
912.654	2251.33
912.948	2261.86
913.242	2289.33
913.536	2281.97
913.829	2266.16
914.123	2246.3
914.416	2201.75
914.71	2181.83
915.003	2186.82
915.297	2191.94
915.59	2191.58
915.883	2181.84
916.176	2167.65
916.469	2152.13
916.762	2133.44
917.055	2108.25
917.348	2093.37
917.641	2099.87
917.934	2101.48
918.226	2107.6
918.519	2101.7
918.811	2091.14
919.104	2084.09
919.396	2056.42
919.689	2035.16
919.981	2010.32
920.273	1989.68
920.565	1987.78
920.857	1974.01
921.149	1966.81
921.441	1964.92
921.733	1963.12
922.025	1941.32
922.316	1925.1
922.608	1907.72
922.9	1878.63
923.191	1866.87
923.483	1875.88
923.774	1862.94
924.065	1875.97
924.357	1872.19
924.648	1856.5
924.939	1850.83
925.23	1833.36
925.521	1802.37
925.812	1793.73
926.102	1789.17
926.393	1801.89
926.684	1813.01
926.975	1805.49
927.265	1786.26
927.556	1781.24
927.846	1756.67
928.136	1739.82
928.427	1724.99
928.717	1711.01
929.007	1693.99
929.297	1673.57
929.587	1667.48
929.877	1663.6
930.167	1657.81
930.457	1650.21
930.746	1643.97
931.036	1638.83
931.325	1618.48
931.615	1598.47
931.904	1591
932.194	1572.67
932.483	1568
932.772	1569.29
933.062	1564.49
933.351	1551.26
933.64	1525.24
933.929	1515.86
934.218	1497.62
934.506	1478.72
934.795	1471.82
935.084	1474.94
935.372	1473.33
935.661	1470.97
935.949	1468.87
936.238	1467.07
936.526	1446.25
936.815	1434.6
937.103	1426.18
937.391	1418.95
937.679	1410.99
937.967	1397.45
938.255	1382.5
938.543	1374.52
938.831	1365.76
939.118	1371.38
939.406	1360.73
939.693	1351.16
939.981	1333.98
940.268	1323.88
940.556	1314.02
940.843	1310.9
941.13	1311.89
941.418	1314.32
941.705	1305.09
941.992	1295.48
942.279	1287.58
942.566	1273.98
942.852	1255.03
943.139	1240.09
943.426	1226.59
943.712	1218.23
943.999	1214.67
944.285	1221.81
944.572	1216.48
944.858	1208.6
945.144	1202.13
945.431	1183.32
945.717	1173.86
946.003	1162.42
946.289	1150.2
946.575	1140.65
946.861	1133.64
947.146	1126.7
947.432	1129.49
947.718	1128.02
948.003	1127.2
948.289	1122.76
948.574	1110.64
948.86	1096.97
949.145	1091.93
949.43	1081.51
949.715	1069.79
950	1056.84
950.285	1057.56
950.57	1054.44
950.855	1057.77
951.14	1050.03
951.425	1049.81
951.709	1040.47
951.994	1028.7
952.278	1021.72
952.563	1011.77
952.847	1000.41
953.132	998.4
953.416	997.52
953.7	992.18
953.984	990.92
954.268	985.48
954.552	978.29
954.836	971.91
955.12	961.17
955.404	951.86
955.687	939.87
955.971	928.8
956.254	924.25
956.538	921.82
956.821	917.9
957.105	917.12
957.388	917.3
957.671	910.71
957.954	904.93
958.237	894.54
958.52	888.25
958.803	881.03
959.086	875.44
959.369	871.7
959.652	867.28
959.934	865.52
960.217	862.57
960.499	856.29
960.782	849.49
961.064	844.05
961.346	837.29
961.629	828.6
961.911	820.59
962.193	817.48
962.475	807.61
962.757	802.89
963.039	802.77
963.32	798.68
963.602	793.34
963.884	789.7
964.165	785.02
964.447	782.59
964.728	773.9
965.01	768.63
965.291	759.33
965.572	753.66
965.853	753.29
966.134	748.83
966.415	748.8
966.696	746.79
966.977	741.02
967.258	742.29
967.539	735.64
967.819	730.64
968.1	720.91
968.38	708.79
968.661	702.35
968.941	696.12
969.222	692.74
969.502	693.94
969.782	692.26
970.062	692.38
970.342	692.96
970.622	690.17
970.902	686.42
971.182	680.29
971.462	673.32
971.741	668.44
972.021	662.78
972.3	658.87
972.58	657.64
972.859	656.51
973.138	655.47
973.418	654.83
973.697	647.98
973.976	644.7
974.255	637.64
974.534	631.75
974.813	627.01
975.092	623.8
975.37	620.09
975.649	617.72
975.928	614.19
976.206	611.37
976.485	607.08
976.763	602.56
977.041	600.2
977.32	596.05
977.598	589.13
977.876	587.04
978.154	583.69
978.432	581.52
978.71	579.38
978.988	578.92
979.265	578.06
979.543	577.33
979.821	572.3
980.098	569.31
980.376	569.22
980.653	565.48
980.93	559.82
981.208	555.71
981.485	551.32
981.762	545.95
982.039	543.17
982.316	540.39
982.593	538.85
982.87	538.39
983.146	533.38
983.423	530.21
983.7	529.36
983.976	527.51
984.253	525.42
984.529	523.98
984.805	519.17
985.082	517.46
985.358	512.41
985.634	509.63
985.91	508.27
986.186	504.31
986.462	503.75
986.738	501.51
987.013	501.36
987.289	500.19
987.565	494.98
987.84	492.79
988.116	488.33
988.391	485.85
988.666	482.55
988.942	479.15
989.217	477.65
989.492	478.36
989.767	477.49
990.042	474.9
990.317	473.28
990.592	475.33
990.866	470.7
991.141	469.56
991.416	465.39
991.69	461.01
991.964	459.53
992.239	456.34
992.513	456.49
992.787	453.96
993.062	453.1
993.336	451.13
993.61	453.59
993.884	449.74
994.158	449.02
994.431	445.53
994.705	443.7
994.979	441.94
995.252	440.29
995.526	436.36
995.799	434.02
996.073	432.5
996.346	431.8
996.619	431.89
996.892	430.89
997.165	428.14
997.438	427.46
997.711	425.55
997.984	423.25
998.257	422.7
998.53	419.55
998.802	420.7
999.075	418.42
999.347	417.39
999.62	417.07
999.892	414.93
1000.165	413.83
1000.437	413.55
1000.709	410.45
1000.981	411.23
1001.253	408.28
1001.525	408.51
1001.797	403.04
1002.068	404.53
1002.34	402.67
1002.612	402.29
1002.883	402.08
1003.155	401.04
1003.426	400.01
1003.698	398.2
1003.969	398.1
1004.24	395.43
1004.511	395.15
1004.782	394.58
1005.053	395.79
1005.324	390.93
1005.595	390.95
1005.866	390.46
1006.136	391.21
1006.407	390.44
1006.678	386.88
1006.948	387.58
1007.218	386.4
1007.489	384.27
1007.759	384.03
1008.029	383.81
1008.299	383.16
1008.569	382.99
1008.839	382.08
1009.109	381.43
1009.379	379.24
1009.649	376.28
1009.918	378.89
1010.188	377.43
1010.458	375.95
1010.727	373.63
1010.996	376.59
1011.266	376.1
1011.535	374.46
1011.804	375.23
1012.073	372.41
1012.342	371.3
1012.611	370.72
1012.88	371.35
1013.149	368.67
1013.417	369.33
1013.686	368.88
1013.955	369.51
1014.223	367.22
1014.492	368.22
1014.76	366.83
1015.028	367.03
1015.296	364.82
1015.565	366.38
1015.833	364.81
1016.101	365.73
1016.368	363.5
1016.636	362.8
1016.904	363.09
1017.172	363.24
1017.439	361.07
1017.707	361.62
1017.974	361.63
1018.242	362.28
1018.509	360.52
1018.776	359.41
1019.044	359.14
1019.311	358.79
1019.578	360.07
1019.845	357.34
1020.112	358.58
1020.378	358.58
1020.645	358.58
