Data from 190702_Kr_34K_film_FLMS138901_15-46-20-419.txt Node
Date: Tue Jul 02 15:46:20 EDT 2019
User: pSAM
Spectrometer: FLMS13890
Trigger mode: 0
Integration Time (sec): 5.000000E-3
Scans to average: 1000
Electric dark correction enabled: true
Nonlinearity correction enabled: false
Boxcar width: 0
XAxis mode: Wavelengths
Number of Pixels in Spectrum: 2048
>>>>>Begin Spectral Data<<<<<
342.097	-60.92
342.483	-60.92
342.868	-60.92
343.254	-103.23
343.639	-104.11
344.025	-102.32
344.41	-99.96
344.796	-89.23
345.181	-79.77
345.567	-67.86
345.952	-51.4
346.337	-36.52
346.722	-19.27
347.107	0.19
347.493	17.42
347.878	37.93
348.263	59.87
348.648	80.48
349.033	98.07
349.418	118.04
349.802	134.31
350.187	154.37
350.572	171.53
350.957	232.07
351.342	357.2
351.726	382.61
352.111	397.43
352.495	412.39
352.88	427.69
353.264	437.07
353.649	451.05
354.033	462.24
354.418	472.74
354.802	481.27
355.186	489.61
355.57	494.99
355.955	505.72
356.339	509.12
356.723	510.87
357.107	517.21
357.491	536.39
357.875	525.66
358.259	526.02
358.643	530.33
359.026	533.27
359.41	534.45
359.794	533.67
360.178	535.28
360.561	534.48
360.945	535.89
361.329	536.53
361.712	535.74
362.096	534.08
362.479	536.97
362.862	535.92
363.246	535.89
363.629	536.43
364.012	535.96
364.396	535.66
364.779	534.71
365.162	534.17
365.545	539.47
365.928	537.37
366.311	536.34
366.694	538.8
367.077	542.39
367.46	542.25
367.843	542.93
368.226	546.41
368.608	544.8
368.991	549.06
369.374	547.91
369.756	551.49
370.139	548
370.521	550.83
370.904	552.46
371.286	554.79
371.669	554.34
372.051	553.47
372.433	559.04
372.816	560.62
373.198	562.56
373.58	563.93
373.962	566.85
374.344	569.32
374.726	571.51
375.108	571.8
375.49	577.52
375.872	578.33
376.254	577.41
376.636	578.4
377.018	576.8
377.399	581.88
377.781	581.05
378.163	586.26
378.544	589.36
378.926	591.93
379.307	599.76
379.689	601.97
380.07	605.32
380.452	605.65
380.833	609.43
381.214	608.76
381.596	615.9
381.977	622.24
382.358	627.84
382.739	633.64
383.12	636.68
383.501	638.21
383.882	640.39
384.263	637.83
384.644	640.65
385.025	644.23
385.406	647.33
385.787	648.63
386.167	653.73
386.548	655.46
386.929	663.1
387.309	671.45
387.69	679.79
388.07	688.33
388.451	689.54
388.831	693.64
389.211	689.76
389.592	685.65
389.972	683.45
390.352	686.14
390.733	689.48
391.113	692.97
391.493	694.96
391.873	703.62
392.253	708.87
392.633	724.52
393.013	731.23
393.393	734.65
393.772	732.48
394.152	735.75
394.532	738.27
394.912	742.21
395.291	739.9
395.671	741.62
396.05	736.48
396.43	736.88
396.809	735.33
397.189	749.26
397.568	754.95
397.948	760.64
398.327	770.22
398.706	775.14
399.085	780.38
399.465	778.25
399.844	774.57
400.223	766.68
400.602	773.16
400.981	769.19
401.36	769.56
401.739	771.53
402.117	775.58
402.496	773.2
402.875	777.78
403.254	784.77
403.632	783.73
404.011	790.93
404.39	805.08
404.768	806.61
405.147	822.06
405.525	827.12
405.903	832.77
406.282	837.98
406.66	833.87
407.038	825.22
407.417	822.19
407.795	823.46
408.173	826.16
408.551	827.49
408.929	829.97
409.307	836.21
409.685	843.38
410.063	845.89
410.441	846.04
410.818	850.4
411.196	852.31
411.574	865.16
411.952	868.07
412.329	884.71
412.707	900.9
413.084	910.41
413.462	915.27
413.839	917.03
414.217	906.77
414.594	909.93
414.971	911.42
415.349	915.18
415.726	915.52
416.103	907.52
416.48	911.69
416.857	919.61
417.234	929.22
417.611	931.83
417.988	934.31
418.365	924.08
418.742	930.43
419.119	938.49
419.495	943.37
419.872	939.58
420.249	963.6
420.625	973.5
421.002	990.51
421.379	994.69
421.755	1015.04
422.131	1032.54
422.508	1035.04
422.884	1038.72
423.26	1044.59
423.637	1062.34
424.013	1037.82
424.389	1026
424.765	1020.57
425.141	1027.07
425.517	1016.79
425.893	1013.66
426.269	1014.8
426.645	1020.61
427.021	1052.37
427.397	1069.08
427.772	1080.42
428.148	1078.71
428.524	1078.74
428.899	1070.15
429.275	1084.45
429.651	1096.82
430.026	1114.9
430.401	1130.13
430.777	1129.36
431.152	1123.95
431.527	1118.43
431.903	1114.5
432.278	1110.93
432.653	1112.98
433.028	1118.8
433.403	1148.63
433.778	1181.32
434.153	1181.47
434.528	1176.32
434.903	1172.18
435.278	1182.04
435.653	1190.29
436.027	1193.41
436.402	1200.2
436.777	1213.72
437.151	1219.35
437.526	1225.35
437.9	1228.62
438.275	1247.84
438.649	1244.28
439.023	1254.51
439.398	1257.5
439.772	1253.24
440.146	1259.94
440.52	1276.98
440.895	1299.62
441.269	1337.48
441.643	1360.12
442.017	1358.92
442.391	1354.14
442.765	1349.28
443.138	1340.27
443.512	1358.71
443.886	1362.4
444.26	1369.4
444.633	1376.65
445.007	1381.08
445.38	1380.62
445.754	1389.48
446.127	1396.52
446.501	1394.34
446.874	1390.84
447.248	1387.82
447.621	1399.09
447.994	1391.28
448.367	1398.27
448.741	1401.59
449.114	1396.84
449.487	1412.6
449.86	1417.44
450.233	1421.36
450.606	1414.82
450.978	1413.03
451.351	1421.75
451.724	1412.13
452.097	1415.75
452.469	1431.01
452.842	1426.85
453.215	1436.06
453.587	1439.19
453.96	1443.36
454.332	1445.51
454.704	1460.37
455.077	1464.05
455.449	1480.99
455.821	1478.57
456.194	1497.83
456.566	1502.88
456.938	1518.73
457.31	1536.96
457.682	1556.78
458.054	1569.96
458.426	1591.69
458.798	1605.26
459.17	1616.33
459.541	1610.23
459.913	1597.02
460.285	1596.16
460.656	1599.8
461.028	1595.05
461.399	1615.71
461.771	1608.32
462.142	1624.24
462.514	1643
462.885	1661.49
463.256	1707.23
463.628	1722.83
463.999	1759.9
464.37	1794.73
464.741	1800.55
465.112	1787.82
465.483	1804.66
465.854	1814.82
466.225	1806.18
466.596	1803.85
466.967	1829.85
467.338	1827.53
467.708	1863.15
468.079	1864.81
468.45	1880.61
468.82	1887.02
469.191	1894.64
469.561	1894.88
469.932	1908.3
470.302	1893.23
470.673	1931.95
471.043	1946.79
471.413	1974.16
471.783	1997.89
472.154	2033.7
472.524	2062.83
472.894	2117.83
473.264	2154.34
473.634	2156.55
474.004	2162.09
474.374	2193.33
474.743	2212.16
475.113	2257.27
475.483	2285.83
475.853	2316.11
476.222	2336.61
476.592	2381.87
476.961	2370.15
477.331	2387.93
477.7	2422.72
478.07	2485.26
478.439	2505.28
478.808	2536.78
479.178	2542.96
479.547	2593.29
479.916	2611.64
480.285	2674.65
480.654	2693.54
481.023	2733.92
481.392	2758.46
481.761	2792.88
482.13	2834.37
482.499	2868.01
482.867	2896.37
483.236	2952.16
483.605	3014.82
483.973	3063.31
484.342	3133.04
484.71	3180.59
485.079	3269.72
485.447	3703.79
485.816	4124.55
486.184	4327.39
486.552	4097.01
486.921	3760.26
487.289	3545.29
487.657	3484.27
488.025	3463.55
488.393	3474.86
488.761	3507.34
489.129	3561.7
489.497	3589.24
489.865	3668.12
490.233	3706.41
490.6	3762.27
490.968	3743.18
491.336	3770.7
491.703	3790.2
492.071	3842.4
492.438	3880.34
492.806	3912.93
493.173	3982.82
493.541	4014.33
493.908	4021.54
494.275	4024
494.642	4037.02
495.01	4055.59
495.377	4066.2
495.744	4096.37
496.111	4177.9
496.478	4249.79
496.845	4256.89
497.211	4262.06
497.578	4272.57
497.945	4292.58
498.312	4364.21
498.678	4423.59
499.045	4495.59
499.412	4500.27
499.778	4520.29
500.145	4519.62
500.511	4528.14
500.878	4583.86
501.244	4649.94
501.61	4669.84
501.976	4677.36
502.343	4690.93
502.709	4739.13
503.075	4749.47
503.441	4761.9
503.807	4781.32
504.173	4786.38
504.539	4800.56
504.905	4834.99
505.27	4876.16
505.636	4909.51
506.002	4959
506.367	4971.02
506.733	4967.94
507.099	4962.46
507.464	4990.39
507.829	5012.48
508.195	5072.33
508.56	5089.16
508.926	5088.51
509.291	5099.17
509.656	5131.32
510.021	5150.92
510.386	5189.78
510.751	5219.02
511.116	5261.23
511.481	5283.22
511.846	5326.35
512.211	5328.63
512.576	5346.58
512.941	5354.1
513.305	5378.26
513.67	5412.86
514.035	5411.37
514.399	5464.13
514.764	5469.68
515.128	5488.17
515.493	5507.06
515.857	5536.95
516.221	5548.13
516.585	5585.29
516.95	5617.58
517.314	5630.88
517.678	5646.95
518.042	5662.38
518.406	5727.59
518.77	5743.75
519.134	5779.17
519.498	5843.66
519.862	5838.78
520.225	5792.97
520.589	5855.25
520.953	5901.68
521.316	5919.2
521.68	5950.73
522.043	5992.25
522.407	5983.09
522.77	6016.2
523.134	6070.61
523.497	6052.66
523.86	6103.15
524.223	6146.54
524.587	6169.95
524.95	6186.88
525.313	6225.01
525.676	6262.51
526.039	6302.6
526.402	6290.99
526.765	6363.09
527.127	6393.68
527.49	6440.17
527.853	6473.71
528.215	6476.48
528.578	6535.45
528.941	6547.91
529.303	6631.13
529.666	6658.2
530.028	6686.75
530.39	6740.26
530.753	6741.31
531.115	6768.74
531.477	6823.98
531.839	6852.61
532.201	6870.92
532.564	6931.98
532.926	6979.91
533.287	7082.32
533.649	7112.63
534.011	7147.42
534.373	7201.44
534.735	7250.35
535.097	7283.58
535.458	7304.64
535.82	7338.94
536.181	7336.93
536.543	7371.12
536.904	7357.12
537.266	7465.03
537.627	7509.23
537.988	7537.63
538.35	7590.57
538.711	7630.95
539.072	7727.91
539.433	7736.04
539.794	7780.21
540.155	7810.7
540.516	7852.91
540.877	7902.27
541.238	7960.61
541.599	8026.47
541.959	8060.68
542.32	8134.18
542.681	8164.02
543.041	8169.18
543.402	8235.02
543.762	8290.17
544.123	8273.86
544.483	8329.18
544.844	8387.82
545.204	8405.51
545.564	8407.94
545.924	8433.52
546.284	8490.67
546.644	8543.33
547.004	8560.42
547.364	8596.76
547.724	8662.38
548.084	8672.5
548.444	8765.47
548.804	8771.66
549.164	8814.67
549.523	8837.55
549.883	8840.03
550.242	8856.08
550.602	8887.26
550.961	8907.28
551.321	8909.14
551.68	8985.72
552.04	9037.62
552.399	9114.89
552.758	9107.04
553.117	9085.27
553.476	9220.52
553.835	9227.19
554.194	9263.59
554.553	9235.41
554.912	9254.62
555.271	9308.27
555.63	9327
555.989	9402.01
556.347	9422.98
556.706	9483.02
557.065	9472.19
557.423	9506.53
557.782	9536.58
558.14	9534.53
558.499	9566.99
558.857	9602.21
559.215	9634.83
559.573	9664.16
559.932	9679.52
560.29	9750.81
560.648	9790.93
561.006	9881.81
561.364	9908.19
561.722	9946.67
562.08	10013.72
562.438	9940.58
562.795	10010.04
563.153	10073.96
563.511	10096.15
563.868	10166.45
564.226	10191.25
564.583	10241.3
564.941	10218.75
565.298	10309.91
565.656	10297.91
566.013	10327.69
566.37	10379.99
566.727	10443.54
567.085	10564.78
567.442	10687.91
567.799	10816.18
568.156	10853.28
568.513	10900.12
568.87	10988.33
569.226	11179.58
569.583	11417.58
569.94	11500.1
570.297	11601.89
570.653	11601.26
571.01	11660.43
571.366	11883.49
571.723	12063.99
572.079	12045.02
572.436	11999.84
572.792	11981.74
573.148	12167.76
573.505	12321.82
573.861	12617.8
574.217	12664.31
574.573	12672.95
574.929	12634.1
575.285	12705.57
575.641	12805.16
575.997	12892.3
576.352	12958.37
576.708	13019.71
577.064	13145.09
577.42	13423.29
577.775	13649.58
578.131	13741.27
578.486	13649.74
578.842	13415.4
579.197	13398.68
579.552	13499.24
579.908	13726.87
580.263	13969.37
580.618	13876.49
580.973	13971.76
581.328	14465.71
581.683	15105.46
582.038	15426.91
582.393	14959.61
582.748	14401.13
583.103	13852.01
583.458	13538.78
583.812	13513.14
584.167	13799.11
584.522	14138.33
584.876	14414.49
585.231	14481.9
585.585	14471.25
585.939	14255.55
586.294	14101.23
586.648	13985.06
587.002	13933.82
587.356	14141.29
587.711	14513.94
588.065	14555.96
588.419	14701.34
588.773	14562.85
589.127	14219.93
589.48	14135.58
589.834	13930.27
590.188	13927.74
590.542	13935.75
590.895	13815.48
591.249	13904.81
591.603	13775.62
591.956	13850.89
592.309	14004.16
592.663	14159.28
593.016	14506.07
593.369	14775.76
593.723	14646.31
594.076	14510.57
594.429	14458.15
594.782	14656.92
595.135	14911.08
595.488	14959.34
595.841	14876.1
596.194	14670.68
596.547	14530.75
596.899	14419.2
597.252	14515.34
597.605	14585.18
597.957	14572.04
598.31	14555.81
598.662	14679.54
599.015	14761.5
599.367	14843.12
599.719	14836.47
600.072	14847.98
600.424	14928.45
600.776	15077.93
601.128	15118.97
601.48	15137.23
601.832	15203.89
602.184	15212.39
602.536	15246.91
602.888	15359.02
603.24	15554.92
603.592	15719.93
603.943	15646.02
604.295	15476.17
604.646	15280.96
604.998	15249.73
605.349	15339.55
605.701	15357.13
606.052	15390.56
606.404	15328.85
606.755	15389.26
607.106	15449.56
607.457	15397.22
607.808	15428.31
608.159	15443.16
608.51	15501.98
608.861	15452.18
609.212	15346.59
609.563	15514.42
609.914	15694.66
610.265	15676.4
610.615	15830.17
610.966	15854.02
611.316	15894.27
611.667	16016.25
612.017	16045.24
612.368	15811.28
612.718	15989.99
613.068	15962.02
613.419	16046.2
613.769	16023.98
614.119	16072.17
614.469	16149.55
614.819	16056.89
615.169	16025.2
615.519	16159.94
615.869	16192.72
616.219	16080.67
616.568	15905.04
616.918	15886.39
617.268	16004.83
617.617	16124.08
617.967	16191.89
618.316	16100.36
618.666	16113.26
619.015	16043.88
619.364	15956.44
619.714	16198.75
620.063	16264.79
620.412	16324.59
620.761	16278.2
621.11	16288.24
621.459	16149.63
621.808	16254.34
622.157	16444.49
622.506	16492.63
622.855	16630.6
623.203	16744.26
623.552	16771.73
623.901	16769.03
624.249	16715.76
624.598	16788.58
624.946	16705.04
625.295	16660.75
625.643	16594.54
625.991	16652.05
626.34	16531.69
626.688	16618.37
627.036	16776.86
627.384	16766.68
627.732	16886.84
628.08	16921.92
628.428	16901.68
628.776	16878.68
629.124	16872.94
629.471	16906.55
629.819	17009.28
630.167	17081.44
630.514	17064.38
630.862	16958.28
631.209	17001.64
631.557	17015.61
631.904	17111.41
632.251	17198.01
632.599	17119.14
632.946	17186.96
633.293	17278.61
633.64	17198.22
633.987	17216.91
634.334	17170.92
634.681	17202.76
635.028	17254.24
635.375	17340.71
635.722	17487.86
636.068	17456.61
636.415	17468.57
636.762	17557.89
637.108	17652.85
637.455	17565.95
637.801	17605.19
638.147	17713.55
638.494	17644.7
638.84	17816.43
639.186	17797.16
639.532	17725.78
639.878	17717.98
640.225	17733.16
640.571	17825.53
640.916	17897.13
641.262	17913.86
641.608	17860.4
641.954	17899.28
642.3	17997.84
642.645	17967.22
642.991	17984.29
643.337	17995.03
643.682	18042.16
644.028	18094.22
644.373	18111
644.718	18067.43
645.064	18010.13
645.409	18062.34
645.754	18137.32
646.099	18276.14
646.444	18261.25
646.789	18270.04
647.134	18243.63
647.479	18320.62
647.824	18358.78
648.169	18311.82
648.513	18408.67
648.858	18417.29
649.203	18446.55
649.547	18460.01
649.892	18507.96
650.236	18585.85
650.581	18527.28
650.925	18602.15
651.269	18668.05
651.613	18799.71
651.958	18653.85
652.302	18603.2
652.646	18560.69
652.99	18641.26
653.334	18825.03
653.678	18752.96
654.022	18793.99
654.365	18857.06
654.709	18879.51
655.053	18840.54
655.396	19344.74
655.74	25347.72
656.083	35790.14
656.427	42716.17
656.77	43608.14
657.114	33766.96
657.457	25332.85
657.8	21396.95
658.143	19840.1
658.486	19333.77
658.83	19214.21
659.173	19049.08
659.516	19064.33
659.858	19110.26
660.201	19191.61
660.544	19037.59
660.887	19129.19
661.229	19164.3
661.572	19150.69
661.915	19210.83
662.257	19130.39
662.6	19182.24
662.942	19170.56
663.284	19115.24
663.627	19227.56
663.969	19210.3
664.311	19196.09
664.653	19215.87
664.995	19110.81
665.337	19198.44
665.679	19140.18
666.021	19096.99
666.363	19006.64
666.705	19063.45
667.046	19045.89
667.388	19032.44
667.73	19028.07
668.071	19061.06
668.413	19199.76
668.754	19283.31
669.096	19226.68
669.437	19344.51
669.778	19186.41
670.119	19101.07
670.461	19113.11
670.802	19142.32
671.143	19009.39
671.484	19088.6
671.825	19149.46
672.165	19262
672.506	19167.92
672.847	19004.98
673.188	19221.58
673.528	19243.64
673.869	19134
674.21	19243.63
674.55	19125.97
674.89	19121.17
675.231	19164.1
675.571	19156.24
675.911	19204.86
676.252	19313.15
676.592	19377.28
676.932	19235.64
677.272	19130.63
677.612	19287.3
677.952	19362.22
678.292	19368.66
678.631	19244.14
678.971	19316.16
679.311	19388.84
679.651	19322.4
679.99	19403.74
680.33	19467.59
680.669	19367.17
681.009	19239.56
681.348	19311.6
681.687	19350.74
682.026	19382.32
682.366	19253.84
682.705	19268.97
683.044	19297.76
683.383	19364.91
683.722	19487.32
684.061	19452.14
684.4	19484.99
684.738	19539.75
685.077	19532.38
685.416	19399.45
685.754	19519.42
686.093	19620.85
686.431	19751.2
686.77	19591.11
687.108	19429.52
687.447	19352.26
687.785	19463.49
688.123	19270.7
688.461	19307.82
688.799	19245.65
689.137	19288.09
689.475	19274.95
689.813	19222.81
690.151	19400.02
690.489	19420.99
690.827	19392.43
691.164	19336.76
691.502	19368.55
691.84	19384.97
692.177	19488.98
692.515	19500.84
692.852	19381.32
693.189	19320.02
693.527	19360.52
693.864	19388.05
694.201	19467.32
694.538	19404.39
694.875	19282.19
695.212	19183.06
695.549	19155.17
695.886	19165.32
696.223	19303.08
696.56	19259.92
696.897	19226.22
697.233	19284.7
697.57	19323.24
697.906	19502.04
698.243	19530.7
698.579	19434.02
698.916	19354.36
699.252	19286.91
699.588	19311.17
699.924	19353.72
700.261	19317.96
700.597	19309.61
700.933	19262.19
701.269	19274.62
701.605	19509.86
701.941	19308.42
702.276	19349.18
702.612	19214.13
702.948	19275.9
703.283	19225.48
703.619	19238.98
703.954	19255.21
704.29	19178.19
704.625	19270.14
704.961	19158.21
705.296	19218.44
705.631	19198.96
705.966	19232.49
706.301	19223.41
706.637	19283.16
706.972	19617.01
707.306	19608.51
707.641	19604.86
707.976	19504.53
708.311	19445.15
708.646	19455.19
708.98	19282.99
709.315	19235.24
709.649	19177.98
709.984	19224.45
710.318	19075.02
710.653	19122.06
710.987	19182.63
711.321	19207.9
711.655	19211.39
711.989	19239.07
712.324	19203.08
712.658	19188.77
712.992	19195.1
713.325	19150.79
713.659	19179.4
713.993	19108.2
714.327	19228.63
714.66	19184.57
714.994	19123.24
715.328	19169.46
715.661	19180.37
715.994	19206.08
716.328	19119.09
716.661	19023.48
716.994	19031.05
717.328	18871.14
717.661	18804.53
717.994	18857.11
718.327	18908.71
718.66	18919.85
718.993	18954.9
719.325	18969.27
719.658	18881.76
719.991	18934.51
720.324	18906.63
720.656	18744.37
720.989	18610.03
721.321	18682.38
721.654	18781.06
721.986	18789.59
722.318	18785.47
722.651	18917.66
722.983	18705.17
723.315	18694.72
723.647	18687
723.979	18621
724.311	18577.15
724.643	18537.82
724.975	18543.31
725.307	18562.96
725.638	18862.93
725.97	18889.62
726.302	18980.23
726.633	18665.51
726.965	18645.41
727.296	18579.79
727.628	18537.28
727.959	18415.85
728.29	18434.91
728.621	18407.88
728.952	18469.63
729.284	18318.51
729.615	18319.28
729.945	18265.06
730.276	18272.47
730.607	18349.32
730.938	18391.35
731.269	18272.66
731.599	18247.29
731.93	18291.8
732.261	18211.38
732.591	18129.84
732.922	18079.21
733.252	17986.76
733.582	17915.36
733.912	17856.91
734.243	17871.42
734.573	17829.16
734.903	17924.06
735.233	17787.87
735.563	17921.24
735.893	17935.04
736.223	17767.54
736.552	17629.3
736.882	17498.25
737.212	17480.01
737.541	17536.49
737.871	17639.51
738.2	17562.77
738.53	17389.66
738.859	17297.21
739.188	17223.96
739.518	17180.53
739.847	17234.3
740.176	17244.86
740.505	17262.78
740.834	17110.92
741.163	17137.8
741.492	17002.4
741.821	16897.69
742.15	16740.26
742.478	16789.45
742.807	16716.22
743.136	16765.62
743.464	16639.1
743.793	16486.27
744.121	16434.98
744.449	16457.29
744.778	16537.74
745.106	16566.22
745.434	16599.3
745.762	16466.38
746.09	16356.94
746.418	16352.64
746.746	16307.56
747.074	16143.75
747.402	16236.79
747.73	16264.95
748.057	16274.7
748.385	16148.87
748.712	16021.76
749.04	15969.28
749.367	16055.4
749.695	15969.91
750.022	16118.11
750.349	15998.49
750.677	15876.69
751.004	15747.19
751.331	15729.24
751.658	15729.6
751.985	15712.68
752.312	15595.97
752.639	15536.73
752.966	15483.48
753.292	15332.09
753.619	15404.06
753.946	15399.41
754.272	15350.62
754.599	15438.64
754.925	15308.73
755.251	15252.47
755.578	15264.46
755.904	15173.67
756.23	15144.59
756.556	15214.53
756.882	15217.68
757.208	15087.05
757.534	15094.92
757.86	15176.09
758.186	15190.02
758.512	15100.28
758.838	15092.83
759.163	15025.57
759.489	14989.26
759.814	14824.21
760.14	14839.34
760.465	15003.67
760.791	14801.83
761.116	14594.35
761.441	14508.24
761.766	14560.61
762.092	14545.74
762.417	14372.32
762.742	14268.01
763.066	14203.89
763.391	14236.13
763.716	14231.79
764.041	14311.69
764.366	14291
764.69	14165.61
765.015	14126.01
765.339	14126.63
765.664	14177.5
765.988	14063.71
766.312	13884.39
766.637	13839.84
766.961	13784.35
767.285	13779.7
767.609	13586.2
767.933	13431.26
768.257	13604.59
768.581	13564.74
768.905	13680.63
769.229	13698.3
769.552	13653.25
769.876	13719.88
770.2	13630.24
770.523	13605.96
770.847	13512.51
771.17	13435.06
771.493	13370.44
771.817	13289.64
772.14	13151.02
772.463	13129.35
772.786	13128.8
773.109	12947.24
773.432	12936.29
773.755	12834
774.078	12847.56
774.401	12854.31
774.724	12715.32
775.046	12713.04
775.369	12641
775.692	12612.46
776.014	12546.49
776.336	12459.32
776.659	12394.84
776.981	12341.78
777.303	12329.23
777.626	12242.49
777.948	12200.87
778.27	12182.14
778.592	12211.93
778.914	12248.76
779.236	12215.49
779.557	12177.41
779.879	12271.6
780.201	12340.95
780.523	12414.29
780.844	12320.2
781.166	12297.21
781.487	12240.56
781.809	12194.35
782.13	12279.94
782.451	12314.08
782.772	12482.51
783.094	12336.02
783.415	12339.75
783.736	12252.94
784.057	12274.54
784.378	12239.38
784.698	12271.73
785.019	12301.35
785.34	12108.46
785.661	12260.68
785.981	12263.12
786.302	12328.37
786.622	12304.01
786.943	12357.09
787.263	12253.78
787.583	12226.71
787.903	12338.78
788.224	12394.1
788.544	12440.04
788.864	12280.99
789.184	12384.17
789.504	12344.3
789.824	12367.14
790.143	12447.37
790.463	12342.36
790.783	12227.91
791.102	12317.39
791.422	12428.63
791.741	12377.36
792.061	12298.53
792.38	12346.57
792.699	12289.38
793.019	12275.1
793.338	12262.94
793.657	12243.77
793.976	12260.97
794.295	12153.02
794.614	12162.72
794.933	12144.15
795.252	12260.25
795.57	12310.94
795.889	12316.53
796.208	12201.63
796.526	11996.47
796.845	11993.55
797.163	11869.05
797.482	11821.59
797.8	11861.54
798.118	11871.32
798.436	11874.97
798.754	11778.96
799.073	11672.57
799.391	11805.42
799.708	11856.7
800.026	11840.29
800.344	11897.61
800.662	11841.62
800.98	11763.09
801.297	11735.38
801.615	11706.25
801.932	11665.93
802.25	11574.75
802.567	11550.72
802.884	11463.02
803.202	11383.14
803.519	11329.71
803.836	11352.24
804.153	11258.81
804.47	11266.22
804.787	11212.03
805.104	11174.26
805.421	11216.82
805.737	11326.16
806.054	11291.76
806.371	11332.69
806.687	11328.6
807.004	11257.57
807.32	11140.53
807.637	11101.78
807.953	11038.06
808.269	10977.42
808.585	10941.57
808.902	10824.59
809.218	10780.42
809.534	10776.24
809.85	10735.69
810.165	10653.81
810.481	10630.96
810.797	10546.61
811.113	10488.09
811.428	10463.62
811.744	10481.9
812.059	10501.87
812.375	10452.42
812.69	10367.92
813.006	10293.63
813.321	10270.74
813.636	10229.51
813.951	10348.05
814.266	10400.3
814.581	10337.95
814.896	10216.9
815.211	10179.47
815.526	10164.04
815.841	10070.68
816.155	10141.07
816.47	10082.57
816.784	10055.74
817.099	9940.58
817.413	9870.47
817.728	9897.17
818.042	9893.11
818.356	9870.63
818.67	9773.72
818.985	9755.15
819.299	9698.29
819.613	9703.4
819.926	9516.88
820.24	9508.24
820.554	9550.6
820.868	9616.86
821.182	9534.61
821.495	9551.63
821.809	9488.89
822.122	9439.35
822.436	9402.75
822.749	9384.95
823.062	9355.82
823.376	9305.41
823.689	9239.84
824.002	9220.88
824.315	9171.14
824.628	9237.91
824.941	9206.8
825.254	9152.8
825.566	9092.87
825.879	9010.53
826.192	8989.53
826.504	9007.54
826.817	9023.51
827.129	9106.25
827.442	9026.89
827.754	8931.84
828.066	8878.79
828.379	8807.52
828.691	8881.3
829.003	8806.67
829.315	8774.48
829.627	8743.39
829.939	8655.93
830.251	8582.7
830.562	8517.4
830.874	8593.2
831.186	8584.67
831.497	8597.86
831.809	8546.11
832.12	8448.77
832.432	8400.85
832.743	8410.37
833.054	8363.49
833.365	8333.75
833.676	8292.87
833.988	8304.71
834.299	8260.11
834.61	8287.32
834.92	8299
835.231	8279.38
835.542	8278.24
835.853	8243.14
836.163	8226.24
836.474	8130.35
836.784	8042.56
837.095	7995.75
837.405	7943.6
837.715	8005.91
838.026	7959.21
838.336	7911.68
838.646	7849.77
838.956	7696.69
839.266	7697.62
839.576	7674.31
839.886	7694.42
840.195	7740.4
840.505	7710.75
840.815	7680.91
841.124	7626.34
841.434	7548.63
841.743	7489.96
842.053	7482.6
842.362	7480.2
842.671	7484.29
842.981	7455.91
843.29	7337.53
843.599	7261.91
843.908	7188.77
844.217	7183.91
844.526	7255.31
844.835	7249.19
845.143	7260.65
845.452	7190.57
845.761	7125.52
846.069	6965.67
846.378	6987.25
846.686	6993.88
846.995	6967.13
847.303	6962.72
847.611	6977.86
847.919	6880.21
848.227	6795.49
848.535	6744.55
848.843	6719.82
849.151	6727.85
849.459	6789.79
849.767	6755.09
850.075	6742.18
850.382	6687.61
850.69	6665.65
850.998	6594.63
851.305	6533.62
851.612	6580.36
851.92	6642.98
852.227	6581.48
852.534	6501.39
852.841	6491.32
853.148	6479.14
853.455	6519.82
853.762	6443.84
854.069	6445.21
854.376	6391.37
854.683	6293.83
854.99	6183.77
855.296	6149.49
855.603	6170.51
855.909	6196.29
856.216	6204.1
856.522	6189.1
856.828	6144.07
857.135	6065.59
857.441	6074.72
857.747	6040.88
858.053	6028.53
858.359	5903.21
858.665	5910.29
858.971	5888.96
859.276	5861.3
859.582	5811.27
859.888	5762.71
860.193	5735.49
860.499	5766.12
860.804	5774.86
861.11	5711.28
861.415	5657.85
861.72	5659.22
862.026	5620.3
862.331	5612.22
862.636	5562.43
862.941	5545.5
863.246	5505.23
863.551	5495.5
863.855	5497.88
864.16	5512.99
864.465	5486.09
864.769	5439.78
865.074	5354.36
865.378	5287.85
865.683	5226.2
865.987	5260.62
866.291	5234.48
866.596	5251.31
866.9	5214.45
867.204	5198.34
867.508	5154.45
867.812	5100.18
868.116	5124.32
868.42	5121.29
868.723	5101.35
869.027	5085.95
869.331	5052.28
869.634	5014.11
869.938	4915.54
870.241	4909.11
870.544	4880.57
870.848	4897.68
871.151	4893.58
871.454	4851.84
871.757	4786.67
872.06	4752.82
872.363	4719.81
872.666	4712.63
872.969	4660.13
873.272	4663.25
873.574	4679.34
873.877	4662.87
874.18	4665.46
874.482	4659.99
874.785	4616.24
875.087	4543.43
875.389	4530.94
875.692	4499.06
875.994	4484.55
876.296	4492.18
876.598	4486.11
876.9	4401.67
877.202	4310.18
877.504	4300.72
877.805	4308.74
878.107	4329.45
878.409	4285.26
878.71	4285.11
879.012	4261.71
879.313	4197.96
879.615	4182.98
879.916	4165.08
880.217	4154.53
880.518	4135.05
880.82	4134.69
881.121	4122.16
881.422	4108.98
881.723	4036.67
882.023	3973.83
882.324	3958.84
882.625	3915.13
882.926	3903.44
883.226	3961.98
883.527	3943.03
883.827	3937.88
884.128	3917.27
884.428	3898.88
884.728	3832.11
885.028	3783.64
885.328	3750.25
885.629	3738.6
885.929	3747.47
886.228	3753.01
886.528	3740.63
886.828	3701.74
887.128	3673.85
887.427	3632.53
887.727	3602.85
888.027	3566.17
888.326	3544.11
888.625	3569.89
888.925	3551.1
889.224	3543.2
889.523	3500.3
889.822	3481.72
890.121	3439.92
890.42	3417.18
890.719	3445.81
891.018	3444.53
891.317	3456.9
891.616	3443.82
891.914	3377.52
892.213	3335.77
892.512	3322.73
892.81	3309.48
893.108	3296.52
893.407	3307.44
893.705	3344.82
894.003	3359.19
894.301	3321.73
894.599	3284.45
894.897	3283.28
895.195	3276.65
895.493	3243.48
895.791	3239.55
896.089	3247.63
896.386	3274.26
896.684	3302.82
896.981	3299.49
897.279	3285.84
897.576	3294.45
897.874	3241.72
898.171	3243.69
898.468	3242.71
898.765	3248.93
899.062	3275.41
899.359	3284.71
899.656	3292.93
899.953	3285.51
900.25	3272.96
900.547	3236.85
900.843	3216.64
901.14	3206.47
901.436	3210.76
901.733	3215.89
902.029	3218.36
902.325	3221.37
902.622	3181.7
902.918	3184.56
903.214	3196.31
903.51	3168.64
903.806	3175.53
904.102	3173.35
904.398	3177.61
904.694	3178.62
904.989	3206.13
905.285	3167.72
905.581	3111.05
905.876	3107.12
906.171	3089.58
906.467	3079.26
906.762	3079.8
907.057	3075.67
907.353	3079.38
907.648	3066.48
907.943	3058.47
908.238	3044.79
908.533	3024.3
908.827	3028.33
909.122	3018.65
909.417	3022.19
909.711	3032.61
910.006	3034.84
910.301	3013.2
910.595	3020.85
910.889	3022.97
911.184	2979.06
911.478	2974.71
911.772	2959.75
912.066	2940.14
912.36	2951.67
912.654	2950.42
912.948	2950.61
913.242	2962.85
913.536	2925.46
913.829	2893.16
914.123	2861.72
914.416	2824.19
914.71	2831.71
915.003	2848.14
915.297	2850.35
915.59	2842.59
915.883	2817.59
916.176	2794.36
916.469	2773.81
916.762	2753.82
917.055	2734.5
917.348	2722.26
917.641	2732.88
917.934	2729.34
918.226	2719.24
918.519	2694.28
918.811	2677.79
919.104	2662.36
919.396	2628.34
919.689	2596.78
919.981	2579.34
920.273	2573.25
920.565	2593.35
920.857	2593.67
921.149	2585.98
921.441	2562.33
921.733	2542.11
922.025	2505.14
922.316	2467.22
922.608	2449.61
922.9	2430.62
923.191	2431.67
923.483	2430.52
923.774	2398.09
924.065	2391.24
924.357	2387.77
924.648	2369.71
924.939	2362.17
925.23	2351.95
925.521	2341.69
925.812	2325.82
926.102	2302.98
926.393	2286.29
926.684	2287.22
926.975	2288.52
927.265	2283.82
927.556	2277.84
927.846	2244.6
928.136	2210.85
928.427	2184.63
928.717	2164.58
929.007	2154.35
929.297	2141.39
929.587	2147.24
929.877	2148.25
930.167	2147.56
930.457	2132.54
930.746	2100.23
931.036	2078.71
931.325	2054.4
931.615	2044.42
931.904	2057.69
932.194	2046.27
932.483	2036.92
932.772	2029.32
933.062	2012.18
933.351	1987.98
933.64	1963.19
933.929	1949.65
934.218	1936.12
934.506	1921.24
934.795	1905.9
935.084	1896.03
935.372	1888.57
935.661	1879.99
935.949	1866.31
936.238	1853.43
936.526	1831.88
936.815	1819.56
937.103	1814.91
937.391	1808.97
937.679	1806.45
937.967	1807.5
938.255	1801.44
938.543	1794.81
938.831	1775.63
939.118	1763.07
939.406	1742.28
939.693	1714.01
939.981	1687.29
940.268	1675.11
940.556	1655.99
940.843	1647.11
941.13	1640.15
941.418	1638.84
941.705	1624.32
941.992	1615.82
942.279	1597.21
942.566	1580.23
942.852	1556.93
943.139	1541.32
943.426	1524.45
943.712	1513.39
943.999	1508.53
944.285	1509.44
944.572	1498.55
944.858	1496.3
945.144	1491.07
945.431	1470.95
945.717	1459.01
946.003	1443.17
946.289	1425.82
946.575	1426.26
946.861	1434.86
947.146	1442.99
947.432	1450.96
947.718	1437.27
948.003	1423.84
948.289	1408.26
948.574	1384.71
948.86	1358.42
949.145	1345.13
949.43	1321.06
949.715	1315.38
950	1309.07
950.285	1311.9
950.57	1318.9
950.855	1317
951.14	1307.14
951.425	1296.45
951.709	1282.9
951.994	1266.19
952.278	1259.33
952.563	1245.85
952.847	1236.4
953.132	1234.82
953.416	1235.09
953.7	1231.01
953.984	1223.99
954.268	1217.44
954.552	1206.06
954.836	1185.8
955.12	1173.26
955.404	1163.24
955.687	1147.88
955.971	1145.42
956.254	1145.37
956.538	1141.01
956.821	1139.42
957.105	1136.92
957.388	1128
957.671	1112.23
957.954	1099.94
958.237	1086.54
958.52	1072.76
958.803	1063.74
959.086	1055.21
959.369	1053.58
959.652	1049.4
959.934	1046.25
960.217	1041.94
960.499	1039.5
960.782	1031.44
961.064	1029.5
961.346	1022.08
961.629	1012.55
961.911	1000.46
962.193	986.57
962.475	977.09
962.757	972.16
963.039	965.34
963.32	967.84
963.602	964.2
963.884	958.39
964.165	947.18
964.447	936.81
964.728	920.43
965.01	911.82
965.291	904.6
965.572	901.39
965.853	894.84
966.134	890.05
966.415	886.6
966.696	884.66
966.977	874.84
967.258	871.7
967.539	861.96
967.819	853.71
968.1	846.01
968.38	836.55
968.661	831.45
968.941	824.86
969.222	819.51
969.502	818.08
969.782	814.01
970.062	813.51
970.342	808.54
970.622	805.17
970.902	800.63
971.182	791.95
971.462	783.16
971.741	773.06
972.021	765.09
972.3	762.12
972.58	757.99
972.859	758.11
973.138	758.66
973.418	759.34
973.697	753.2
973.976	750.61
974.255	742.85
974.534	735.96
974.813	729.69
975.092	721.65
975.37	717.25
975.649	714.76
975.928	711.11
976.206	707.36
976.485	701.04
976.763	697.73
977.041	694.32
977.32	686.69
977.598	682.74
977.876	677.84
978.154	671.82
978.432	666.85
978.71	664.03
978.988	662.77
979.265	659.87
979.543	659.7
979.821	653.32
980.098	653.35
980.376	646.17
980.653	639.34
980.93	635.71
981.208	629.3
981.485	623.35
981.762	622.07
982.039	614.68
982.316	613.35
982.593	608.76
982.87	605.54
983.146	602.49
983.423	598.53
983.7	594.56
983.976	591.04
984.253	587.46
984.529	584.14
984.805	581.27
985.082	577.64
985.358	571.7
985.634	567.77
985.91	564.88
986.186	563.56
986.462	561.61
986.738	561.05
987.013	556.25
987.289	554.32
987.565	551.12
987.84	543.59
988.116	538.1
988.391	536.18
988.666	531.55
988.942	529.06
989.217	528.51
989.492	527.32
989.767	524.77
990.042	525.47
990.317	517.64
990.592	519.03
990.866	515.85
991.141	510.12
991.416	506.29
991.69	502.37
991.964	503.05
992.239	498.46
992.513	495.85
992.787	496.19
993.062	496.16
993.336	496.44
993.61	492.27
993.884	489.27
994.158	487.05
994.431	486.13
994.705	480.75
994.979	477.23
995.252	474.94
995.526	471.31
995.799	469.1
996.073	467.92
996.346	467.01
996.619	465.93
996.892	462.37
997.165	462.96
997.438	459.55
997.711	457.04
997.984	452.22
998.257	450.37
998.53	448.77
998.802	445.85
999.075	444.16
999.347	441.98
999.62	441.56
999.892	440.65
1000.165	437.53
1000.437	437.46
1000.709	434.88
1000.981	433.52
1001.253	431.41
1001.525	430.09
1001.797	425.67
1002.068	424.07
1002.34	423.57
1002.612	423.82
1002.883	420.82
1003.155	421.49
1003.426	418.78
1003.698	419.93
1003.969	416.1
1004.24	416.68
1004.511	416.38
1004.782	412.65
1005.053	413.03
1005.324	410.34
1005.595	408.84
1005.866	406.91
1006.136	405.1
1006.407	402.84
1006.678	404.42
1006.948	399.52
1007.218	401.25
1007.489	399.61
1007.759	397.93
1008.029	394.15
1008.299	396.7
1008.569	396.86
1008.839	392.81
1009.109	392.98
1009.379	392.53
1009.649	392.57
1009.918	390.6
1010.188	389.18
1010.458	387.59
1010.727	387.95
1010.996	385.87
1011.266	384.93
1011.535	386.21
1011.804	383.57
1012.073	382.95
1012.342	380.98
1012.611	383.74
1012.88	380.94
1013.149	379.44
1013.417	379.07
1013.686	377.56
1013.955	376.7
1014.223	375.23
1014.492	375.98
1014.76	374.94
1015.028	374.24
1015.296	374.98
1015.565	374.05
1015.833	374.07
1016.101	372.76
1016.368	370.79
1016.636	371.69
1016.904	370.7
1017.172	372.33
1017.439	367.01
1017.707	369.43
1017.974	368.82
1018.242	366.54
1018.509	366.74
1018.776	367.81
1019.044	366.91
1019.311	365.73
1019.578	366.29
1019.845	364.2
1020.112	364.8
1020.378	364.8
1020.645	364.8
