Data from 190619_Kr_37K_no_film_FLMS138901_10-21-05-426.txt Node
Date: Wed Jun 19 10:21:05 EDT 2019
User: pSAM
Spectrometer: FLMS13890
Trigger mode: 0
Integration Time (sec): 5.000000E-3
Scans to average: 1000
Electric dark correction enabled: true
Nonlinearity correction enabled: false
Boxcar width: 0
XAxis mode: Wavelengths
Number of Pixels in Spectrum: 2048
>>>>>Begin Spectral Data<<<<<
342.097	-58.83
342.483	-58.83
342.868	-58.83
343.254	-100.21
343.639	-104.3
344.025	-102.49
344.41	-96.63
344.796	-89.22
345.181	-80.25
345.567	-66.26
345.952	-54.72
346.337	-36.27
346.722	-17.61
347.107	0.47
347.493	18.51
347.878	36.77
348.263	57.72
348.648	77.47
349.033	98.18
349.418	116.75
349.802	137.56
350.187	154.59
350.572	171.31
350.957	239.5
351.342	384.71
351.726	412.04
352.111	428.39
352.495	442.91
352.88	453.76
353.264	469.09
353.649	485.28
354.033	494.14
354.418	506.16
354.802	515.63
355.186	523.78
355.57	530.46
355.955	538.48
356.339	543.35
356.723	549.73
357.107	553.53
357.491	590.39
357.875	559.67
358.259	560.85
358.643	565.73
359.026	567.05
359.41	568.65
359.794	569.8
360.178	572.77
360.561	571.14
360.945	568.52
361.329	572.33
361.712	569.02
362.096	572.61
362.479	572.95
362.862	573.06
363.246	570.42
363.629	570.95
364.012	571.66
364.396	568.77
364.779	573.38
365.162	570.05
365.545	571.78
365.928	573.03
366.311	574.94
366.694	578.04
367.077	579.67
367.46	579.91
367.843	578.94
368.226	579.31
368.608	581.52
368.991	582.51
369.374	586.32
369.756	584.16
370.139	584.63
370.521	584.95
370.904	588.83
371.286	585.05
371.669	586.59
372.051	589.17
372.433	593.66
372.816	593.75
373.198	596.58
373.58	597.91
373.962	596.87
374.344	600.24
374.726	603.78
375.108	606.57
375.49	611.1
375.872	615
376.254	611.97
376.636	614.82
377.018	612.32
377.399	616.13
377.781	615.91
378.163	616.99
378.544	612.96
378.926	618.77
379.307	620.6
379.689	628.51
380.07	634.48
380.452	643.12
380.833	644.78
381.214	646.97
381.596	650.16
381.977	651.52
382.358	658.68
382.739	668.97
383.12	675.29
383.501	673.06
383.882	668.5
384.263	668.97
384.644	670.87
385.025	674.8
385.406	677.74
385.787	682.83
386.167	683.9
386.548	685.59
386.929	696.15
387.309	699.01
387.69	711.13
388.07	718.87
388.451	722.92
388.831	733.94
389.211	724.61
389.592	715.66
389.972	717.43
390.352	717.77
390.733	721.66
391.113	724.04
391.493	725.05
391.873	735.37
392.253	741.83
392.633	753.59
393.013	764.94
393.393	771.34
393.772	766.78
394.152	769.24
394.532	767.73
394.912	776.31
395.291	777.98
395.671	780.32
396.05	770.16
396.43	771.41
396.809	771.34
397.189	783.62
397.568	790.07
397.948	789.89
398.327	804.91
398.706	814.3
399.085	818.88
399.465	815.7
399.844	812.22
400.223	802.15
400.602	807.76
400.981	805.15
401.36	805.02
401.739	803.83
402.117	811.3
402.496	805.39
402.875	810.89
403.254	818.32
403.632	819.37
404.011	828.28
404.39	840.67
404.768	843.67
405.147	862.71
405.525	869.95
405.903	873.29
406.282	874.37
406.66	872.39
407.038	860.91
407.417	856.01
407.795	856.86
408.173	858.36
408.551	861.59
408.929	865.72
409.307	873.8
409.685	878.29
410.063	884.76
410.441	881.59
410.818	884.67
411.196	888.49
411.574	899.67
411.952	902.86
412.329	916.2
412.707	934.47
413.084	949.36
413.462	953.62
413.839	957.37
414.217	944.32
414.594	943.24
414.971	943.58
415.349	951.5
415.726	953.53
416.103	946.82
416.48	949.98
416.857	954.55
417.234	967.67
417.611	970.37
417.988	974.98
418.365	963.63
418.742	968.59
419.119	972.71
419.495	981.23
419.872	977.58
420.249	1002.98
420.625	1010.49
421.002	1028.47
421.379	1038.8
421.755	1056.31
422.131	1073.48
422.508	1077.71
422.884	1078.41
423.26	1089.48
423.637	1104.84
424.013	1085.22
424.389	1073.27
424.765	1062.3
425.141	1066.21
425.517	1064.56
425.893	1058.82
426.269	1055.46
426.645	1058.28
427.021	1087.86
427.397	1111.41
427.772	1128.47
428.148	1130.25
428.524	1122.82
428.899	1105.51
429.275	1118.03
429.651	1136.98
430.026	1159.12
430.401	1176.13
430.777	1176.13
431.152	1174.21
431.527	1164.02
431.903	1163.36
432.278	1155.12
432.653	1154.19
433.028	1161.75
433.403	1189.88
433.778	1229.38
434.153	1237.26
434.528	1229.65
434.903	1219.71
435.278	1235.26
435.653	1254.89
436.027	1264.55
436.402	1279
436.777	1278.95
437.151	1272.63
437.526	1276.46
437.9	1277.75
438.275	1298.39
438.649	1294.38
439.023	1303.58
439.398	1303.15
439.772	1303.07
440.146	1306.62
440.52	1322.18
440.895	1343.16
441.269	1382.94
441.643	1418.61
442.017	1422.43
442.391	1414.39
442.765	1402.81
443.138	1387.63
443.512	1409.76
443.886	1422.99
444.26	1426.09
444.633	1433.82
445.007	1436.05
445.38	1438.7
445.754	1442.01
446.127	1453.84
446.501	1450.87
446.874	1449.54
447.248	1445.78
447.621	1457.14
447.994	1446.55
448.367	1454.25
448.741	1459.43
449.114	1455.31
449.487	1467.69
449.86	1478.05
450.233	1482.8
450.606	1479.31
450.978	1469.72
451.351	1478.64
451.724	1477.25
452.097	1475.51
452.469	1488.94
452.842	1488.42
453.215	1495.75
453.587	1501.97
453.96	1507.62
454.332	1503.98
454.704	1516.55
455.077	1528.16
455.449	1544.09
455.821	1541.31
456.194	1562.8
456.566	1557.93
456.938	1575.11
457.31	1593.19
457.682	1626.03
458.054	1634.99
458.426	1656.65
458.798	1671.78
459.17	1678.18
459.541	1679.03
459.913	1669.03
460.285	1663.41
460.656	1664.31
461.028	1659.22
461.399	1679.11
461.771	1671.99
462.142	1686.06
462.514	1701.7
462.885	1721.76
463.256	1771.16
463.628	1783.42
463.999	1819.11
464.37	1857.22
464.741	1875.95
465.112	1858.76
465.483	1878.36
465.854	1885.4
466.225	1873.89
466.596	1867.82
466.967	1892.25
467.338	1890.42
467.708	1916.98
468.079	1937.16
468.45	1945.25
468.82	1956.66
469.191	1957.89
469.561	1952.75
469.932	1970.65
470.302	1962.83
470.673	2001.81
471.043	2019.69
471.413	2041.01
471.783	2073.03
472.154	2103.09
472.524	2128.18
472.894	2187.2
473.264	2211.67
473.634	2229.08
474.004	2227.44
474.374	2263.78
474.743	2271.07
475.113	2328.37
475.483	2349.05
475.853	2384.95
476.222	2415.59
476.592	2469.89
476.961	2461.9
477.331	2463.03
477.7	2501.82
478.07	2578.62
478.439	2601.9
478.808	2626.91
479.178	2636.89
479.547	2675.48
479.916	2713.08
480.285	2780.32
480.654	2797.13
481.023	2836
481.392	2865.55
481.761	2898.01
482.13	2929.79
482.499	2961.99
482.867	2983.22
483.236	3061.38
483.605	3131.61
483.973	3169.92
484.342	3247.52
484.71	3314.91
485.079	3369
485.447	3783.45
485.816	4286.03
486.184	4577.42
486.552	4358.49
486.921	3898.82
487.289	3642.02
487.657	3621.5
488.025	3604.23
488.393	3604.78
488.761	3625.57
489.129	3689.54
489.497	3713.7
489.865	3802.98
490.233	3844.34
490.6	3901.8
490.968	3903.86
491.336	3919.22
491.703	3937.8
492.071	3967.25
492.438	4010.5
492.806	4061.48
493.173	4136.9
493.541	4164.67
493.908	4165.83
494.275	4181.03
494.642	4184.36
495.01	4208.3
495.377	4219.79
495.744	4225.48
496.111	4314.37
496.478	4391.25
496.845	4399.28
497.211	4403.6
497.578	4393.98
497.945	4422.47
498.312	4515.58
498.678	4591.86
499.045	4661.37
499.412	4660.57
499.778	4652.93
500.145	4654.69
500.511	4652.35
500.878	4712.77
501.244	4779.17
501.61	4815.09
501.976	4807.64
502.343	4813.22
502.709	4889.64
503.075	4908.96
503.441	4931.57
503.807	4950.17
504.173	4944.26
504.539	4937.68
504.905	4975.47
505.27	5032.91
505.636	5049.15
506.002	5102.9
506.367	5110.68
506.733	5114.44
507.099	5108.54
507.464	5144.34
507.829	5143.5
508.195	5224.52
508.56	5236.59
508.926	5236.47
509.291	5236.59
509.656	5261.83
510.021	5290.5
510.386	5341.27
510.751	5370.39
511.116	5420.02
511.481	5457.14
511.846	5490.85
512.211	5495.76
512.576	5507.54
512.941	5502.94
513.305	5528.33
513.67	5555.43
514.035	5566.71
514.399	5589.49
514.764	5597.83
515.128	5644.1
515.493	5672.47
515.857	5692.53
516.221	5694.35
516.585	5746.11
516.95	5762.75
517.314	5782.3
517.678	5792.56
518.042	5819.89
518.406	5895.98
518.77	5907.06
519.134	5926.47
519.498	5980.76
519.862	5987.62
520.225	5970.79
520.589	6009.19
520.953	6026.46
521.316	6074.58
521.68	6104.84
522.043	6137.46
522.407	6136.23
522.77	6138.43
523.134	6185.1
523.497	6173.14
523.86	6261.83
524.223	6291
524.587	6306.19
524.95	6323.77
525.313	6352.42
525.676	6426.68
526.039	6444.75
526.402	6451.52
526.765	6502.06
527.127	6555.16
527.49	6592.96
527.853	6612.63
528.215	6585.75
528.578	6649.91
528.941	6678.42
529.303	6725.27
529.666	6750.77
530.028	6807.36
530.39	6816.26
530.753	6832.3
531.115	6871.04
531.477	6932.72
531.839	6983.21
532.201	6993.97
532.564	7044.49
532.926	7084.84
533.287	7188.97
533.649	7229.5
534.011	7278.29
534.373	7310.56
534.735	7377.15
535.097	7433.97
535.458	7455.46
535.82	7451
536.181	7471.62
536.543	7489.5
536.904	7459.82
537.266	7560.16
537.627	7639.89
537.988	7671.29
538.35	7720.54
538.711	7799.29
539.072	7859.67
539.433	7848.8
539.794	7902.82
540.155	7930.73
540.516	7967.27
540.877	7985.83
541.238	8048.38
541.599	8114.84
541.959	8170.67
542.32	8318.9
542.681	8411.29
543.041	8440.16
543.402	8462.1
543.762	8506.41
544.123	8491.46
544.483	8550.4
544.844	8595.51
545.204	8606.6
545.564	8614.07
545.924	8684.12
546.284	8705.54
546.644	8729.27
547.004	8716.49
547.364	8781.38
547.724	8851.92
548.084	8834.59
548.444	8882.82
548.804	8879.03
549.164	8880.57
549.523	8919.1
549.883	8931.7
550.242	8976.89
550.602	9020.94
550.961	9058.28
551.321	9024.99
551.68	9080.03
552.04	9076.63
552.399	9166.85
552.758	9143.41
553.117	9109.07
553.476	9223.03
553.835	9262.92
554.194	9302.51
554.553	9259.39
554.912	9306.74
555.271	9335.87
555.63	9403.52
555.989	9499.7
556.347	9476.18
556.706	9463.62
557.065	9475.59
557.423	9522
557.782	9549.02
558.14	9526.23
558.499	9551.74
558.857	9578.79
559.215	9561.6
559.573	9657.63
559.932	9726.43
560.29	9831.23
560.648	9866.94
561.006	9920.25
561.364	9960.95
561.722	9961.95
562.08	10003.3
562.438	9928.51
562.795	9990.21
563.153	10020.31
563.511	10051.03
563.868	10082.18
564.226	10192.27
564.583	10269.25
564.941	10245.22
565.298	10372.65
565.656	10339.49
566.013	10373.87
566.37	10424.91
566.727	10510.73
567.085	10603.66
567.442	10738.67
567.799	10777.57
568.156	10816.59
568.513	10896.84
568.87	11032.46
569.226	11260.9
569.583	11501.65
569.94	11554.72
570.297	11594.27
570.653	11491.25
571.01	11658.58
571.366	11893.66
571.723	12042.78
572.079	11967.76
572.436	11924.3
572.792	11863
573.148	12057.61
573.505	12275.25
573.861	12608.74
574.217	12603.23
574.573	12603.71
574.929	12576.68
575.285	12532.15
575.641	12649.75
575.997	12708.53
576.352	12831.09
576.708	12857.52
577.064	13035.29
577.42	13301.62
577.775	13621.94
578.131	13713.53
578.486	13554.45
578.842	13215.81
579.197	13286.22
579.552	13490.53
579.908	13706.4
580.263	14013.39
580.618	13740.05
580.973	13717.04
581.328	14375.32
581.683	15052.25
582.038	15439.49
582.393	14733.88
582.748	14092.68
583.103	13544.96
583.458	13274.08
583.812	13369.17
584.167	13756.37
584.522	13973.16
584.876	14236.97
585.231	14284.4
585.585	14322.33
585.939	14068.34
586.294	13914.78
586.648	13787.43
587.002	13796.33
587.356	14110.97
587.711	14554.71
588.065	14498.35
588.419	14620.83
588.773	14350.87
589.127	14014.98
589.48	13845.56
589.834	13593.94
590.188	13608.27
590.542	13694.84
590.895	13591.5
591.249	13642.71
591.603	13615.6
591.956	13674.96
592.309	13817.76
592.663	14106.01
593.016	14438.88
593.369	14632.75
593.723	14412.12
594.076	14274.83
594.429	14172.53
594.782	14406.14
595.135	14729.21
595.488	14808.98
595.841	14659.3
596.194	14406.69
596.547	14262.16
596.899	14152.7
597.252	14243.77
597.605	14365.77
597.957	14382.1
598.31	14388.64
598.662	14519.29
599.015	14634.63
599.367	14683.18
599.719	14572.84
600.072	14556.93
600.424	14675.48
600.776	14851.8
601.128	14948.39
601.48	14908.6
601.832	14960.94
602.184	14852.09
602.536	14978.32
602.888	15093.33
603.24	15442.08
603.592	15567.19
603.943	15365.37
604.295	15077.54
604.646	14872.82
604.998	14986.52
605.349	15105.68
605.701	15172.05
606.052	15174.66
606.404	15090.28
606.755	15176
607.106	15298.63
607.457	15221.63
607.808	15197.65
608.159	15200.49
608.51	15224.83
608.861	15228.74
609.212	15072.54
609.563	15288.5
609.914	15472.14
610.265	15535.4
610.615	15721.5
610.966	15732.79
611.316	15868.04
611.667	16103.76
612.017	16147.37
612.368	15900.18
612.718	15990.37
613.068	15846.17
613.419	15937.98
613.769	15923.86
614.119	15959.03
614.469	16005.17
614.819	15799.16
615.169	15781.6
615.519	15956.28
615.869	16027.57
616.219	15972.72
616.568	15812.65
616.918	15740.26
617.268	15872.91
617.617	15856.02
617.967	15881.78
618.316	15791.21
618.666	15711.26
619.015	15709.26
619.364	15747.9
619.714	15989.5
620.063	15978.16
620.412	16030.01
620.761	15936.59
621.11	15892.65
621.459	15763.38
621.808	15827.13
622.157	16018.1
622.506	16140.38
622.855	16296.32
623.203	16337.7
623.552	16368.15
623.901	16392.38
624.249	16310.79
624.598	16435.91
624.946	16348.33
625.295	16281.09
625.643	16187.13
625.991	16366.19
626.34	16345.83
626.688	16320.23
627.036	16351.43
627.384	16286.03
627.732	16400.49
628.08	16390.64
628.428	16320.45
628.776	16487.96
629.124	16562.91
629.471	16751.13
629.819	16906.28
630.167	16839.17
630.514	16801.19
630.862	16650.43
631.209	16622.05
631.557	16636.6
631.904	16766.62
632.251	16881.59
632.599	16724.25
632.946	16796.57
633.293	16890.04
633.64	16852.28
633.987	16846.13
634.334	16760.28
634.681	16795.03
635.028	16882.32
635.375	16900.59
635.722	16947.54
636.068	16944.44
636.415	16956.77
636.762	17003.2
637.108	17105.84
637.455	17031.76
637.801	17084.46
638.147	17202.75
638.494	17195.87
638.84	17323.4
639.186	17209.97
639.532	17283.67
639.878	17371.75
640.225	17300.22
640.571	17326.27
640.916	17329.15
641.262	17378.51
641.608	17324.68
641.954	17452.61
642.3	17487.31
642.645	17402.08
642.991	17461.27
643.337	17603.67
643.682	17614.13
644.028	17563.97
644.373	17559.18
644.718	17570.48
645.064	17514.58
645.409	17530.3
645.754	17626.36
646.099	17701.54
646.444	17674.23
646.789	17854.58
647.134	17887.24
647.479	17870.23
647.824	17855.56
648.169	17903.44
648.513	18101.26
648.858	18035.23
649.203	18132.14
649.547	18153.24
649.892	18139.8
650.236	18128.8
650.581	18014.52
650.925	17924.81
651.269	17942.39
651.613	18151.95
651.958	18097.15
652.302	18174.2
652.646	18157.76
652.99	18046.64
653.334	18190.64
653.678	18128.42
654.022	18205.43
654.365	18238.69
654.709	18329.33
655.053	18378.48
655.396	18654.56
655.74	24454.69
656.083	39497.49
656.427	45704.62
656.77	43474
657.114	27818.87
657.457	20867.72
657.8	19159.09
658.143	18653.36
658.486	18472.52
658.83	18538.23
659.173	18478.41
659.516	18524.75
659.858	18453.18
660.201	18372.36
660.544	18322.24
660.887	18394.09
661.229	18522.76
661.572	18423.06
661.915	18465.62
662.257	18453.01
662.6	18587.31
662.942	18637.47
663.284	18534.65
663.627	18470.67
663.969	18412.46
664.311	18520.62
664.653	18475.14
664.995	18475.19
665.337	18499.39
665.679	18420.68
666.021	18377.12
666.363	18221.38
666.705	18310.96
667.046	18298
667.388	18206.14
667.73	18288.56
668.071	18402.58
668.413	18357.12
668.754	18401.95
669.096	18350.1
669.437	18449.76
669.778	18308.5
670.119	18336.2
670.461	18272.59
670.802	18408.33
671.143	18435.86
671.484	18523
671.825	18506.33
672.165	18587.4
672.506	18655.76
672.847	18663.86
673.188	18794.9
673.528	18659.6
673.869	18519.09
674.21	18553.9
674.55	18587.3
674.89	18547.91
675.231	18530.25
675.571	18471.26
675.911	18392.74
676.252	18489.93
676.592	18580.4
676.932	18548.55
677.272	18540.19
677.612	18700.14
677.952	18750.89
678.292	18664.29
678.631	18610.06
678.971	18573.92
679.311	18690.45
679.651	18743.92
679.99	18645.86
680.33	18484.06
680.669	18388.49
681.009	18478.33
681.348	18551.26
681.687	18514.77
682.026	18606.57
682.366	18569.06
682.705	18575.55
683.044	18494.21
683.383	18402.22
683.722	18421.89
684.061	18429.64
684.4	18530.29
684.738	18593.65
685.077	18733.02
685.416	18805.64
685.754	18831.09
686.093	18778.96
686.431	18885.18
686.77	18719.18
687.108	18677.31
687.447	18570.08
687.785	18639.94
688.123	18625.55
688.461	18698.7
688.799	18617.41
689.137	18623.46
689.475	18737.81
689.813	18673.93
690.151	18873.36
690.489	18777.63
690.827	18677.84
691.164	18760.52
691.502	18939.4
691.84	18845.64
692.177	18806.93
692.515	18768.97
692.852	18584.79
693.189	18654.51
693.527	18714.67
693.864	18767.05
694.201	18803.04
694.538	18659.98
694.875	18460.68
695.212	18344.25
695.549	18488.91
695.886	18588.75
696.223	18627.09
696.56	18600.35
696.897	18487.17
697.233	18584.72
697.57	18618.17
697.906	18646.67
698.243	18534.19
698.579	18318.77
698.916	18377.58
699.252	18367.58
699.588	18516.78
699.924	18627.64
700.261	18526.56
700.597	18502.06
700.933	18488.19
701.269	18341.81
701.605	18371.01
701.941	18320.79
702.276	18361.71
702.612	18452.64
702.948	18615.08
703.283	18608.86
703.619	18505.52
703.954	18436.55
704.29	18338.37
704.625	18360.5
704.961	18296.21
705.296	18405.81
705.631	18294.85
705.966	18287.3
706.301	18307.04
706.637	18394.37
706.972	18612.49
707.306	18626.06
707.641	18646.48
707.976	18614.72
708.311	18563.16
708.646	18416
708.98	18332.39
709.315	18312.89
709.649	18315.31
709.984	18367.57
710.318	18252.7
710.653	18365.28
710.987	18411.09
711.321	18462.99
711.655	18371.16
711.989	18327.25
712.324	18375.78
712.658	18296.44
712.992	18342.43
713.325	18250.53
713.659	18353.69
713.993	18285.52
714.327	18245.45
714.66	18257.15
714.994	18156.07
715.328	18152.57
715.661	18278.66
715.994	18437.04
716.328	18249.16
716.661	18234.79
716.994	18301.14
717.328	18148.63
717.661	17934.78
717.994	17874.46
718.327	17972.57
718.66	18002.6
718.993	18023.62
719.325	18019.9
719.658	17961.28
719.991	17959.56
720.324	18017.48
720.656	17869.22
720.989	17829.31
721.321	17929.62
721.654	17972.04
721.986	17886.95
722.318	17833.45
722.651	17892.94
722.983	17781.5
723.315	17861.09
723.647	17907.15
723.979	17898.95
724.311	17899.84
724.643	17888.67
724.975	17887.64
725.307	17856.88
725.638	17968.53
725.97	17828.22
726.302	17911.85
726.633	17857.57
726.965	17916.25
727.296	17746.11
727.628	17693.85
727.959	17648.07
728.29	17746.74
728.621	17703.82
728.952	17791.48
729.284	17588.43
729.615	17603.16
729.945	17525.38
730.276	17478.07
730.607	17410.64
730.938	17308.88
731.269	17272.45
731.599	17263.11
731.93	17303.5
732.261	17189.64
732.591	17152.32
732.922	17186.7
733.252	17155.25
733.582	17150.63
733.912	17140.93
734.243	17123.59
734.573	17194.49
734.903	17320.8
735.233	17029.78
735.563	16962.23
735.893	16908.51
736.223	16805.46
736.552	16781.37
736.882	16727.55
737.212	16639.7
737.541	16650.71
737.871	16747.99
738.2	16721.54
738.53	16533.48
738.859	16394.16
739.188	16317.24
739.518	16452.11
739.847	16650.26
740.176	16595.42
740.505	16524.14
740.834	16389.13
741.163	16281.37
741.492	16236.78
741.821	16296.25
742.15	16181.04
742.478	16146.57
742.807	16048.11
743.136	16111.5
743.464	16001.05
743.793	15885.12
744.121	15730.87
744.449	15588.82
744.778	15561.46
745.106	15667.33
745.434	15617.54
745.762	15412.64
746.09	15390.61
746.418	15401.54
746.746	15322.77
747.074	15230.2
747.402	15304.51
747.73	15283.5
748.057	15393.16
748.385	15347.09
748.712	15215.21
749.04	15123.37
749.367	15134.61
749.695	15095.1
750.022	15222.82
750.349	15233.9
750.677	15233.04
751.004	15113.15
751.331	14992.82
751.658	14953.64
751.985	14913.67
752.312	14870.72
752.639	14778.86
752.966	14736.45
753.292	14631.97
753.619	14731.95
753.946	14743.92
754.272	14682.97
754.599	14597.51
754.925	14492.87
755.251	14437.35
755.578	14450.06
755.904	14407.25
756.23	14289.02
756.556	14348.31
756.882	14510.27
757.208	14437.81
757.534	14390.73
757.86	14342.14
758.186	14361.82
758.512	14349.88
758.838	14316.33
759.163	14235.73
759.489	14106
759.814	13919.28
760.14	13944.35
760.465	13961.63
760.791	13849.99
761.116	13849.56
761.441	13918.12
761.766	13948.71
762.092	13783.95
762.417	13655.29
762.742	13557.29
763.066	13479.68
763.391	13485.79
763.716	13503.72
764.041	13559.2
764.366	13515.17
764.69	13392.63
765.015	13309.83
765.339	13285.43
765.664	13313.38
765.988	13219.29
766.312	13119.87
766.637	12923.51
766.961	12871.48
767.285	12892.02
767.609	12858.47
767.933	12836.15
768.257	12969.01
768.581	12928.24
768.905	13019.07
769.229	13074.55
769.552	13108
769.876	13287.67
770.2	13116.97
770.523	13043.86
770.847	12996.64
771.17	13004.14
771.493	13021.61
771.817	12934.48
772.14	12674.32
772.463	12522.35
772.786	12513.97
773.109	12494.96
773.432	12554.08
773.755	12407.44
774.078	12296.34
774.401	12197.51
774.724	12114.6
775.046	12161.04
775.369	12169.88
775.692	12048.84
776.014	11860.37
776.336	11778.55
776.659	11873.99
776.981	11960.05
777.303	11903.5
777.626	11739.4
777.948	11632.41
778.27	11621.09
778.592	11638.91
778.914	11694.72
779.236	11594.17
779.557	11507.1
779.879	11591.34
780.201	11614.1
780.523	11737.95
780.844	11687.98
781.166	11681.06
781.487	11653.57
781.809	11656.93
782.13	11764.17
782.451	11762.38
782.772	11869.81
783.094	11855.15
783.415	11864.15
783.736	11736.65
784.057	11735.2
784.378	11716.97
784.698	11683.04
785.019	11653.04
785.34	11422.57
785.661	11543.52
785.981	11689.51
786.302	11791.24
786.622	11830.96
786.943	11862.1
787.263	11666.29
787.583	11672.57
787.903	11831.91
788.224	11912.09
788.544	11970.31
788.864	11837.18
789.184	11876.59
789.504	11902.05
789.824	11999.84
790.143	12022.61
790.463	11944.4
790.783	11813.06
791.102	11725.45
791.422	11682.93
791.741	11641.87
792.061	11626.66
792.38	11703.17
792.699	11604.17
793.019	11603.81
793.338	11586.47
793.657	11587.16
793.976	11742.5
794.295	11769.76
794.614	11889.47
794.933	11808.08
795.252	11785.71
795.57	11768.63
795.889	11786.66
796.208	11803.99
796.526	11690.33
796.845	11674.46
797.163	11510.11
797.482	11461.58
797.8	11501.65
798.118	11501.52
798.436	11526.97
798.754	11440.75
799.073	11264.04
799.391	11235.1
799.708	11262.96
800.026	11345.05
800.344	11381.4
800.662	11341.91
800.98	11237.88
801.297	11216.37
801.615	11256.34
801.932	11279.03
802.25	11210.37
802.567	11096.8
802.884	11028.37
803.202	10930.14
803.519	10895.31
803.836	10910.7
804.153	10890.61
804.47	10894.34
804.787	10733.51
805.104	10658.22
805.421	10712.66
805.737	10760.49
806.054	10796.08
806.371	10885.31
806.687	10884.2
807.004	10758.47
807.32	10689.04
807.637	10693.23
807.953	10722.42
808.269	10763.48
808.585	10826.74
808.902	10639.12
809.218	10502.57
809.534	10432.27
809.85	10429.01
810.165	10412.69
810.481	10468.35
810.797	10392.47
811.113	10273.44
811.428	10167.59
811.744	10169.37
812.059	10200.81
812.375	10194.61
812.69	10124.28
813.006	10014.82
813.321	9972.46
813.636	9948.67
813.951	10043.51
814.266	10106.04
814.581	10087.82
814.896	10051.22
815.211	9961.59
815.526	9820.71
815.841	9680.5
816.155	9707.87
816.47	9723.78
816.784	9762.61
817.099	9649.22
817.413	9527.12
817.728	9481.07
818.042	9440.09
818.356	9481.62
818.67	9491.99
818.985	9496.93
819.299	9398.38
819.613	9373.28
819.926	9301.68
820.24	9341.57
820.554	9367.92
820.868	9378.05
821.182	9279.35
821.495	9259.84
821.809	9163.6
822.122	9173.57
822.436	9166.29
822.749	9138.27
823.062	9125.34
823.376	9062.41
823.689	8945.6
824.002	8882.56
824.315	8855.64
824.628	8946.46
824.941	9058.41
825.254	9061.55
825.566	8969.01
825.879	8979.4
826.192	8874.02
826.504	8760.11
826.817	8734.93
827.129	8744.12
827.442	8709.21
827.754	8690.2
828.066	8647.95
828.379	8576.06
828.691	8594.54
829.003	8583.25
829.315	8630.77
829.627	8593.13
829.939	8472.82
830.251	8442.68
830.562	8349.59
830.874	8338.41
831.186	8296.54
831.497	8318.21
831.809	8268.72
832.12	8172.84
832.432	8080.33
832.743	8078.85
833.054	8100.59
833.365	8137.25
833.676	8184.83
833.988	8142.26
834.299	8036.2
834.61	7964.53
834.92	7923.97
835.231	7958.28
835.542	7974.73
835.853	7996.67
836.163	8019.74
836.474	7982.69
836.784	7905.57
837.095	7804.14
837.405	7731.02
837.715	7753.82
838.026	7809.14
838.336	7807
838.646	7749.85
838.956	7610.4
839.266	7538.96
839.576	7479.91
839.886	7528.45
840.195	7581.76
840.505	7539.26
840.815	7472.03
841.124	7380.99
841.434	7304.29
841.743	7258.27
842.053	7286.32
842.362	7290.32
842.671	7336.36
842.981	7339.36
843.29	7223.19
843.599	7153.56
843.908	7088.84
844.217	7065.65
844.526	7097.25
844.835	7117.65
845.143	7093.19
845.452	7030.19
845.761	6998.52
846.069	6883.23
846.378	6917.37
846.686	6928.68
846.995	6995.07
847.303	7020.24
847.611	7047.47
847.919	6951.92
848.227	6904.47
848.535	6819.69
848.843	6787.04
849.151	6793.23
849.459	6874.78
849.767	6823.26
850.075	6755.81
850.382	6656.45
850.69	6592.36
850.998	6538.76
851.305	6463.76
851.612	6480.15
851.92	6533.86
852.227	6569.99
852.534	6544.84
852.841	6514.2
853.148	6484.86
853.455	6577.21
853.762	6615.14
854.069	6660.16
854.376	6638.61
854.683	6600.46
854.99	6498.39
855.296	6423.65
855.603	6336.29
855.909	6283.05
856.216	6263.79
856.522	6247.21
856.828	6226.16
857.135	6164.68
857.441	6090.27
857.747	6000.43
858.053	5986.58
858.359	5955.54
858.665	6035.79
858.971	6046.29
859.276	6005.92
859.582	5925.6
859.888	5884.96
860.193	5812.68
860.499	5774.62
860.804	5806.67
861.11	5810.69
861.415	5842.54
861.72	5828.97
862.026	5731.22
862.331	5682.8
862.636	5627.83
862.941	5623.6
863.246	5617.05
863.551	5653.14
863.855	5690.2
864.16	5681.37
864.465	5628.54
864.769	5585.42
865.074	5558.88
865.378	5548.89
865.683	5528.3
865.987	5545.29
866.291	5474.39
866.596	5457.16
866.9	5380
867.204	5320.66
867.508	5241.39
867.812	5221.63
868.116	5261.49
868.42	5266.47
868.723	5240.97
869.027	5203.33
869.331	5118.76
869.634	5043.34
869.938	4975.55
870.241	4984.02
870.544	4982.03
870.848	4994.18
871.151	5000.72
871.454	4982.65
871.757	4938.13
872.06	4903.53
872.363	4870.75
872.666	4884.01
872.969	4874.65
873.272	4886.01
873.574	4895.34
873.877	4864.53
874.18	4795.93
874.482	4706.98
874.785	4666.65
875.087	4613.03
875.389	4653.92
875.692	4687.84
875.994	4712.76
876.296	4700.03
876.598	4652
876.9	4562.44
877.202	4491.98
877.504	4457.74
877.805	4470.67
878.107	4510.45
878.409	4511.86
878.71	4530.08
879.012	4489.65
879.313	4425.91
879.615	4410
879.916	4355.89
880.217	4347.12
880.518	4362.56
880.82	4384.38
881.121	4367.88
881.422	4354.14
881.723	4303.79
882.023	4232.4
882.324	4217.7
882.625	4202.85
882.926	4229.42
883.226	4300.51
883.527	4274.73
883.827	4260.06
884.128	4212.18
884.428	4157.79
884.728	4085.5
885.028	4040.57
885.328	4012.79
885.629	3999.63
885.929	4015.85
886.228	3999.03
886.528	3944.89
886.828	3894.13
887.128	3843.61
887.427	3801.47
887.727	3789.02
888.027	3776.78
888.326	3813.19
888.625	3818.29
888.925	3773.01
889.224	3759.88
889.523	3714.94
889.822	3675.49
890.121	3638.18
890.42	3610.09
890.719	3619.52
891.018	3608.76
891.317	3641.06
891.616	3642.69
891.914	3613.12
892.213	3584.42
892.512	3557.7
892.81	3546.55
893.108	3548.11
893.407	3557.18
893.705	3578.17
894.003	3568.57
894.301	3542.73
894.599	3511.05
894.897	3480.73
895.195	3448.23
895.493	3410.25
895.791	3436.91
896.089	3474.2
896.386	3491.39
896.684	3511.26
896.981	3488.91
897.279	3465.46
897.576	3466.79
897.874	3423.57
898.171	3435.04
898.468	3440.51
898.765	3442.28
899.062	3474.25
899.359	3465.04
899.656	3462.63
899.953	3452.92
900.25	3443.64
900.547	3410.21
900.843	3378.61
901.14	3376.01
901.436	3393.91
901.733	3428.61
902.029	3441.13
902.325	3444.1
902.622	3395.14
902.918	3370.3
903.214	3346.79
903.51	3306.61
903.806	3324.77
904.102	3344.67
904.398	3367.49
904.694	3378.02
904.989	3401.69
905.285	3362.64
905.581	3311.37
905.876	3280.55
906.171	3242.85
906.467	3229.02
906.762	3250.84
907.057	3275.56
907.353	3316.48
907.648	3310.04
907.943	3292.62
908.238	3255.51
908.533	3194.36
908.827	3165.14
909.122	3148.03
909.417	3153.93
909.711	3187.31
910.006	3198.41
910.301	3183.72
910.595	3182.78
910.889	3168.69
911.184	3099.58
911.478	3065.73
911.772	3043.94
912.066	3014.65
912.36	3012.59
912.654	3021.98
912.948	3042.44
913.242	3081.39
913.536	3059.75
913.829	3026.84
914.123	2992.91
914.416	2926.42
914.71	2900.72
915.003	2896.4
915.297	2891.69
915.59	2879.16
915.883	2871.3
916.176	2855.57
916.469	2822.79
916.762	2791.54
917.055	2754.38
917.348	2723.71
917.641	2734.57
917.934	2732.09
918.226	2726.52
918.519	2709.26
918.811	2688.82
919.104	2662.07
919.396	2627.04
919.689	2587.12
919.981	2557.52
920.273	2548.54
920.565	2562.8
920.857	2562.99
921.149	2563.7
921.441	2541.18
921.733	2508.45
922.025	2465.87
922.316	2429.89
922.608	2400.49
922.9	2372.01
923.191	2363.1
923.483	2381.93
923.774	2368.61
924.065	2375.32
924.357	2372.57
924.648	2337.92
924.939	2319.87
925.23	2288.73
925.521	2265.27
925.812	2246.61
926.102	2232.87
926.393	2225.17
926.684	2231.5
926.975	2217.52
927.265	2195.43
927.556	2168.21
927.846	2132.64
928.136	2097.45
928.427	2075.59
928.717	2058.74
929.007	2048
929.297	2041.7
929.587	2038.79
929.877	2038.64
930.167	2037.07
930.457	2014.09
930.746	1979.51
931.036	1957.83
931.325	1933.73
931.615	1920.87
931.904	1928.75
932.194	1919.98
932.483	1922.23
932.772	1922.47
933.062	1913.7
933.351	1886.11
933.64	1846.23
933.929	1820.77
934.218	1798.26
934.506	1776.63
934.795	1762.28
935.084	1754.9
935.372	1749.25
935.661	1735.19
935.949	1722.83
936.238	1715.77
936.526	1686.51
936.815	1667.49
937.103	1652.83
937.391	1639.7
937.679	1631.52
937.967	1624.05
938.255	1616.01
938.543	1610.38
938.831	1597.51
939.118	1580.92
939.406	1561.83
939.693	1540.05
939.981	1525.91
940.268	1517.15
940.556	1507.73
940.843	1500.55
941.13	1498.98
941.418	1496.14
941.705	1493.84
941.992	1480.01
942.279	1470.33
942.566	1446.3
942.852	1420.06
943.139	1392.2
943.426	1369.47
943.712	1352.05
943.999	1344.59
944.285	1344.45
944.572	1339.77
944.858	1332.97
945.144	1332.43
945.431	1319.56
945.717	1296.18
946.003	1287.52
946.289	1266.9
946.575	1252.29
946.861	1242.53
947.146	1238.72
947.432	1240.18
947.718	1234.9
948.003	1231.63
948.289	1227.52
948.574	1212.86
948.86	1200.96
949.145	1190.7
949.43	1179.81
949.715	1178.06
950	1168.17
950.285	1163.88
950.57	1156.42
950.855	1149.29
951.14	1133.8
951.425	1120.99
951.709	1102.42
951.994	1085.28
952.278	1072.07
952.563	1058.06
952.847	1046.41
953.132	1037.08
953.416	1037.38
953.7	1030.95
953.984	1030.41
954.268	1030.46
954.552	1018.52
954.836	1011.49
955.12	996.78
955.404	984.11
955.687	971.48
955.971	969.12
956.254	968.45
956.538	966.71
956.821	966.28
957.105	959.13
957.388	951.34
957.671	941.01
957.954	927.64
958.237	916.07
958.52	905.41
958.803	896.08
959.086	889.02
959.369	887.24
959.652	884.77
959.934	884.43
960.217	877.48
960.499	873.26
960.782	864.04
961.064	857.3
961.346	851.46
961.629	839.53
961.911	831.99
962.193	823.54
962.475	817.24
962.757	808.66
963.039	805.42
963.32	802.12
963.602	795.04
963.884	789.06
964.165	781.47
964.447	776.15
964.728	767.63
965.01	763.47
965.291	759.95
965.572	757.06
965.853	753.99
966.134	746.66
966.415	742.25
966.696	741.13
966.977	733.75
967.258	732.26
967.539	725.33
967.819	722.88
968.1	713.19
968.38	706.56
968.661	699.59
968.941	693.75
969.222	689.15
969.502	686.24
969.782	681.1
970.062	677.3
970.342	674.92
970.622	669.48
970.902	666.38
971.182	658.83
971.462	652.31
971.741	647.44
972.021	642.71
972.3	638.48
972.58	634.47
972.859	633.89
973.138	628.45
973.418	627.13
973.697	619.17
973.976	615.35
974.255	608.82
974.534	602.99
974.813	594.29
975.092	592.55
975.37	588
975.649	586.48
975.928	580.29
976.206	582.33
976.485	579.75
976.763	574.72
977.041	571.78
977.32	568.87
977.598	563.41
977.876	560.75
978.154	555.76
978.432	551.59
978.71	547.16
978.988	543.84
979.265	541.27
979.543	538.59
979.821	538.31
980.098	532.52
980.376	527.7
980.653	522.48
980.93	520.95
981.208	517.09
981.485	511.27
981.762	509.39
982.039	505.48
982.316	502.72
982.593	503.07
982.87	499.6
983.146	496.52
983.423	494.79
983.7	491.99
983.976	488.42
984.253	484.19
984.529	483.47
984.805	481.53
985.082	476.39
985.358	474.78
985.634	473.6
985.91	470.18
986.186	467.61
986.462	465.68
986.738	464.73
987.013	457.36
987.289	456.24
987.565	453.42
987.84	452.34
988.116	449.1
988.391	446.66
988.666	444.5
988.942	440.01
989.217	440.5
989.492	437.32
989.767	436.54
990.042	435.87
990.317	433.88
990.592	433.58
990.866	431.22
991.141	430.75
991.416	429.11
991.69	426.3
991.964	427.38
992.239	424.89
992.513	422.07
992.787	421.68
993.062	419.7
993.336	417.39
993.61	418.09
993.884	416.07
994.158	412.61
994.431	411.7
994.705	409.01
994.979	410.41
995.252	407.09
995.526	406.37
995.799	406.43
996.073	405.46
996.346	404.29
996.619	403.81
996.892	399.9
997.165	399.11
997.438	397.74
997.711	398.75
997.984	395.35
998.257	394.75
998.53	394.69
998.802	394.54
999.075	394.16
999.347	393.59
999.62	391.75
999.892	390.48
1000.165	388.93
1000.437	388.76
1000.709	390.81
1000.981	390.81
1001.253	386.39
1001.525	383.96
1001.797	384.26
1002.068	384.1
1002.34	383.55
1002.612	383.78
1002.883	382.52
1003.155	380.36
1003.426	381
1003.698	380.22
1003.969	377.93
1004.24	381.67
1004.511	378.63
1004.782	378.48
1005.053	377.75
1005.324	377.32
1005.595	375.33
1005.866	376.1
1006.136	374.99
1006.407	376.66
1006.678	375.22
1006.948	373.65
1007.218	373.81
1007.489	374.97
1007.759	372.81
1008.029	371.33
1008.299	372.73
1008.569	373.34
1008.839	372.55
1009.109	371.44
1009.379	371.55
1009.649	370.24
1009.918	369.93
1010.188	369.94
1010.458	370.51
1010.727	369.95
1010.996	369.41
1011.266	369.01
1011.535	366.79
1011.804	366.63
1012.073	368.71
1012.342	364.78
1012.611	367.04
1012.88	366.17
1013.149	368.63
1013.417	367.09
1013.686	364.44
1013.955	365.17
1014.223	366.21
1014.492	365.96
1014.76	364.29
1015.028	364.06
1015.296	363.26
1015.565	363.14
1015.833	363.31
1016.101	363.73
1016.368	363.51
1016.636	361.13
1016.904	362.65
1017.172	365.23
1017.439	362.81
1017.707	361.31
1017.974	362.18
1018.242	361.92
1018.509	361.22
1018.776	361.29
1019.044	361.01
1019.311	361.98
1019.578	361.9
1019.845	361.39
1020.112	360.93
1020.378	360.93
1020.645	360.93
