Data from 190712_Ar_34K_dark_FLMS138901_17-47-23-582.txt Node
Date: Fri Jul 12 17:47:23 EDT 2019
User: pSAM
Spectrometer: FLMS13890
Trigger mode: 0
Integration Time (sec): 5.000000E-3
Scans to average: 1000
Electric dark correction enabled: true
Nonlinearity correction enabled: false
Boxcar width: 0
XAxis mode: Wavelengths
Number of Pixels in Spectrum: 2048
>>>>>Begin Spectral Data<<<<<
342.097	-61.26
342.483	-61.26
342.868	-61.26
343.254	-103.99
343.639	-106.59
344.025	-104.85
344.41	-100.14
344.796	-91.05
345.181	-80.66
345.567	-67.43
345.952	-52.23
346.337	-35.3
346.722	-15.09
347.107	-0.92
347.493	18.04
347.878	39.55
348.263	58.48
348.648	79.38
349.033	98.55
349.418	117.17
349.802	136.5
350.187	153.88
350.572	171.32
350.957	188.79
351.342	205.7
351.726	218.56
352.111	232.1
352.495	244.91
352.88	258.67
353.264	272.53
353.649	284.56
354.033	292.54
354.418	298.88
354.802	309.59
355.186	314.95
355.57	320.86
355.955	325.91
356.339	329.49
356.723	331.97
357.107	333.2
357.491	352.91
357.875	338.64
358.259	338.88
358.643	339.82
359.026	340.59
359.41	340.7
359.794	339.86
360.178	338.5
360.561	336.96
360.945	337.1
361.329	334.63
361.712	334.62
362.096	332.26
362.479	333.05
362.862	327.9
363.246	326.11
363.629	328.26
364.012	324.83
364.396	323.21
364.779	320.22
365.162	319.7
365.545	318.2
365.928	317.98
366.311	314.19
366.694	314.8
367.077	311.6
367.46	313.99
367.843	313.76
368.226	311.1
368.608	309.72
368.991	311.27
369.374	311.96
369.756	310.99
370.139	311.06
370.521	311.71
370.904	310.42
371.286	310.66
371.669	308.75
372.051	310.13
372.433	310.45
372.816	310.34
373.198	311.24
373.58	309.71
373.962	314.13
374.344	311.79
374.726	314.22
375.108	312.63
375.49	314.53
375.872	315.97
376.254	316.06
376.636	317.24
377.018	315.46
377.399	316.81
377.781	317.53
378.163	317.81
378.544	318.48
378.926	320.07
379.307	318.29
379.689	321.33
380.07	321.47
380.452	323.98
380.833	322.48
381.214	320.66
381.596	322.42
381.977	322.98
382.358	323.64
382.739	324.54
383.12	323.16
383.501	323.5
383.882	323.66
384.263	324.93
384.644	324.23
385.025	326.39
385.406	325.36
385.787	326.71
386.167	325.19
386.548	327.02
386.929	326.5
387.309	329.71
387.69	330.1
388.07	327.07
388.451	328.14
388.831	329.54
389.211	328.92
389.592	329.42
389.972	329.14
390.352	328.86
390.733	331.41
391.113	327.6
391.493	329.49
391.873	330.65
392.253	332.37
392.633	333.93
393.013	332.71
393.393	332.66
393.772	334.54
394.152	331.76
394.532	333.87
394.912	335.11
395.291	333.61
395.671	334.33
396.05	333.94
396.43	333.89
396.809	333.76
397.189	334.33
397.568	337.5
397.948	337.65
398.327	337.19
398.706	335.49
399.085	336.41
399.465	336.56
399.844	337.97
400.223	338.03
400.602	338.1
400.981	337.17
401.36	337.73
401.739	338.18
402.117	338.81
402.496	340.44
402.875	342.3
403.254	339.18
403.632	339.72
404.011	341.65
404.39	345.65
404.768	345.88
405.147	343.96
405.525	346.73
405.903	344.37
406.282	342.3
406.66	343.92
407.038	342.89
407.417	343.25
407.795	343.35
408.173	343.69
408.551	342.37
408.929	344.34
409.307	342.84
409.685	346.23
410.063	346.84
410.441	344.71
410.818	345.76
411.196	344.51
411.574	346.55
411.952	348.18
412.329	345.62
412.707	346.46
413.084	345.52
413.462	345.59
413.839	353.19
414.217	350.42
414.594	349.04
414.971	348.39
415.349	348.43
415.726	350.5
416.103	349.97
416.48	346.74
416.857	349.7
417.234	351.31
417.611	349.9
417.988	352.05
418.365	350.43
418.742	350.2
419.119	348.95
419.495	350.07
419.872	350.41
420.249	358.09
420.625	352.76
421.002	352.25
421.379	350.6
421.755	351.05
422.131	350.01
422.508	353.53
422.884	355.67
423.26	352.78
423.637	353.85
424.013	352.09
424.389	358.01
424.765	354.52
425.141	354.42
425.517	354.72
425.893	354.85
426.269	353.31
426.645	355.34
427.021	354.69
427.397	357.13
427.772	357.03
428.148	356.84
428.524	356.76
428.899	355.73
429.275	355
429.651	356.31
430.026	356.71
430.401	358.2
430.777	356.43
431.152	356.42
431.527	356.87
431.903	356.73
432.278	359.08
432.653	356.78
433.028	359.87
433.403	359.24
433.778	359.45
434.153	361.25
434.528	360.73
434.903	369.48
435.278	384.97
435.653	395.8
436.027	398.07
436.402	386.98
436.777	375.3
437.151	364.83
437.526	361.66
437.9	362.48
438.275	362.3
438.649	362.19
439.023	362.06
439.398	362.95
439.772	362.18
440.146	362.46
440.52	361.5
440.895	363.52
441.269	362.67
441.643	360.77
442.017	363.06
442.391	363.79
442.765	362.42
443.138	362.35
443.512	363.63
443.886	362.25
444.26	363.91
444.633	362.51
445.007	365.2
445.38	367.42
445.754	364.83
446.127	363.41
446.501	364.16
446.874	364.55
447.248	363.69
447.621	365.3
447.994	364.74
448.367	366.69
448.741	366.92
449.114	365.55
449.487	366.78
449.86	365.97
450.233	367.89
450.606	365.6
450.978	367.34
451.351	369.51
451.724	365.77
452.097	365.61
452.469	365.55
452.842	364.6
453.215	364.96
453.587	366.1
453.96	366.96
454.332	368.47
454.704	366.96
455.077	368.2
455.449	366.55
455.821	368.11
456.194	366.05
456.566	366.11
456.938	367.93
457.31	367.18
457.682	368.43
458.054	367.41
458.426	367.43
458.798	368.24
459.17	368.91
459.541	369.18
459.913	365.5
460.285	369.39
460.656	367.22
461.028	369.46
461.399	366.77
461.771	368.6
462.142	367.16
462.514	367.67
462.885	367.72
463.256	366.89
463.628	369.86
463.999	369.87
464.37	370.56
464.741	367.36
465.112	368.47
465.483	368.03
465.854	367.58
466.225	369.08
466.596	368.19
466.967	368.03
467.338	369.37
467.708	371.68
468.079	370.08
468.45	367.51
468.82	369.08
469.191	369.23
469.561	370.71
469.932	370.03
470.302	369.43
470.673	369.17
471.043	369.84
471.413	368.1
471.783	371.26
472.154	370.67
472.524	367.95
472.894	367.87
473.264	370.03
473.634	368.64
474.004	370.3
474.374	368.26
474.743	369.7
475.113	369.72
475.483	368.72
475.853	368.03
476.222	370.21
476.592	369.73
476.961	370.65
477.331	371.69
477.7	369.7
478.07	369.45
478.439	369.59
478.808	370.46
479.178	370.15
479.547	369.44
479.916	371.84
480.285	370.36
480.654	370.18
481.023	371.18
481.392	371.75
481.761	373.03
482.13	373.62
482.499	371.36
482.867	373.34
483.236	375.02
483.605	375.9
483.973	378.66
484.342	379.28
484.71	383.11
485.079	385.21
485.447	382.59
485.816	388.24
486.184	391.23
486.552	391.54
486.921	392.27
487.289	393.39
487.657	393.86
488.025	391.31
488.393	390.25
488.761	389.79
489.129	392.83
489.497	392.1
489.865	390.1
490.233	390.08
490.6	389.3
490.968	389.09
491.336	387.44
491.703	389.15
492.071	387.21
492.438	386.07
492.806	386.99
493.173	384.88
493.541	383.93
493.908	382.75
494.275	383.06
494.642	383.68
495.01	381.62
495.377	380.79
495.744	381.59
496.111	382.81
496.478	382.67
496.845	381.12
497.211	381.53
497.578	382.57
497.945	379.61
498.312	378.18
498.678	378.75
499.045	377.33
499.412	377.99
499.778	377.47
500.145	375.44
500.511	375.06
500.878	373.96
501.244	371.74
501.61	371.4
501.976	371.41
502.343	371.69
502.709	372.09
503.075	371.61
503.441	371.23
503.807	372.58
504.173	370.21
504.539	369.43
504.905	371.27
505.27	368.08
505.636	369.98
506.002	370.59
506.367	371.44
506.733	369.67
507.099	369.52
507.464	370.22
507.829	370.77
508.195	370.22
508.56	369.26
508.926	370.58
509.291	369.56
509.656	370.19
510.021	369.3
510.386	370.4
510.751	370.55
511.116	370.93
511.481	369.14
511.846	369.78
512.211	368.79
512.576	369.34
512.941	368.59
513.305	370.48
513.67	372.09
514.035	370.08
514.399	369.42
514.764	368.39
515.128	370.46
515.493	369.03
515.857	371.28
516.221	368.82
516.585	367.96
516.95	369
517.314	368.76
517.678	370.14
518.042	368.48
518.406	368.75
518.77	368.84
519.134	367.09
519.498	370.82
519.862	369.12
520.225	368.53
520.589	369.27
520.953	367.67
521.316	367.99
521.68	368.47
522.043	369.32
522.407	368.25
522.77	370.11
523.134	369.6
523.497	368.16
523.86	372.42
524.223	368.46
524.587	369.86
524.95	368.63
525.313	366.41
525.676	368.1
526.039	368.9
526.402	368.78
526.765	367.85
527.127	367.9
527.49	368.18
527.853	367.04
528.215	368.6
528.578	367.27
528.941	367.78
529.303	369.58
529.666	368.85
530.028	368.51
530.39	368.26
530.753	368.78
531.115	370.54
531.477	368.31
531.839	369.87
532.201	369.67
532.564	368.28
532.926	369.93
533.287	372.4
533.649	370.67
534.011	371.26
534.373	371.67
534.735	368.87
535.097	372.04
535.458	371.84
535.82	370.01
536.181	371.59
536.543	372.55
536.904	374.19
537.266	377.38
537.627	376.27
537.988	380.95
538.35	385.95
538.711	386.19
539.072	391.76
539.433	393.95
539.794	398.23
540.155	405.21
540.516	413.13
540.877	423.86
541.238	442.54
541.599	468.3
541.959	502.13
542.32	528.07
542.681	548.44
543.041	557.35
543.402	560.21
543.762	560.56
544.123	554.76
544.483	547.26
544.844	536.03
545.204	534.34
545.564	550.51
545.924	559.87
546.284	555.03
546.644	518.61
547.004	474.44
547.364	444.1
547.724	425.17
548.084	417.87
548.444	418.14
548.804	417.39
549.164	422.2
549.523	421.11
549.883	417.21
550.242	413.93
550.602	409.7
550.961	406.75
551.321	405.05
551.68	403.38
552.04	404.67
552.399	403.72
552.758	399.47
553.117	398.22
553.476	393.8
553.835	390.15
554.194	387.2
554.553	381.81
554.912	377.22
555.271	377.7
555.63	373.89
555.989	373.57
556.347	371.59
556.706	373.75
557.065	368.26
557.423	369.59
557.782	370.75
558.14	369.23
558.499	368.69
558.857	370.46
559.215	366.82
559.573	369.83
559.932	368.01
560.29	368.84
560.648	368.33
561.006	369.08
561.364	367.2
561.722	367.46
562.08	368.45
562.438	369.37
562.795	367.29
563.153	368.39
563.511	367.37
563.868	367.36
564.226	366.07
564.583	368.28
564.941	366.1
565.298	367.86
565.656	366.83
566.013	366.26
566.37	366.81
566.727	367.76
567.085	366.37
567.442	366.59
567.799	364.93
568.156	367.03
568.513	366.35
568.87	364.65
569.226	367.88
569.583	365.48
569.94	365.02
570.297	367.11
570.653	364.12
571.01	365.33
571.366	366
571.723	365.7
572.079	366.4
572.436	366.9
572.792	368.35
573.148	367.27
573.505	367.05
573.861	367.39
574.217	366.37
574.573	368.26
574.929	369.39
575.285	366.67
575.641	368.95
575.997	368.89
576.352	374.31
576.708	379.64
577.064	383.48
577.42	384.16
577.775	383.87
578.131	376.89
578.486	380.28
578.842	381.86
579.197	390.67
579.552	392.96
579.908	393.68
580.263	395.51
580.618	397.08
580.973	396.82
581.328	393.87
581.683	391.87
582.038	395.9
582.393	396.36
582.748	399.55
583.103	402.07
583.458	409.22
583.812	411.7
584.167	410.55
584.522	409.45
584.876	405.97
585.231	406.46
585.585	398.44
585.939	400.63
586.294	399.81
586.648	403.74
587.002	413.96
587.356	422.6
587.711	427.04
588.065	424.42
588.419	417.4
588.773	409.3
589.127	402.83
589.48	398.78
589.834	398.29
590.188	395.81
590.542	394.44
590.895	393.09
591.249	391.44
591.603	388.25
591.956	388.3
592.309	390.98
592.663	395.96
593.016	398.5
593.369	399.04
593.723	397.32
594.076	391.66
594.429	386.86
594.782	382.61
595.135	378.55
595.488	376.4
595.841	373.87
596.194	375.11
596.547	372.98
596.899	373.65
597.252	374.47
597.605	372.82
597.957	373.78
598.31	375.42
598.662	376.33
599.015	379.47
599.367	380.75
599.719	386.3
600.072	384.29
600.424	385.21
600.776	380.13
601.128	375.55
601.48	371.36
601.832	370.74
602.184	371.45
602.536	370.29
602.888	367.97
603.24	369.59
603.592	369.25
603.943	367.5
604.295	370.94
604.646	368.08
604.998	366.8
605.349	368.62
605.701	371.68
606.052	374.39
606.404	370.91
606.755	372.62
607.106	372.56
607.457	375.03
607.808	376.09
608.159	379
608.51	384.18
608.861	385.69
609.212	392.82
609.563	400.44
609.914	416.71
610.265	444.86
610.615	499.97
610.966	576.48
611.316	644.92
611.667	679.59
612.017	662.27
612.368	613.12
612.718	560.19
613.068	517.32
613.419	488.65
613.769	469.88
614.119	462.65
614.469	454.47
614.819	447.26
615.169	440.77
615.519	431.76
615.869	422.32
616.219	411.96
616.568	406.23
616.918	402.6
617.268	398.14
617.617	394.07
617.967	395.29
618.316	394.27
618.666	392.15
619.015	391.34
619.364	394.48
619.714	397.67
620.063	399.71
620.412	402.42
620.761	401.9
621.11	402.34
621.459	400.06
621.808	400.96
622.157	398.64
622.506	397.29
622.855	396.49
623.203	391.99
623.552	391.29
623.901	388.91
624.249	388.93
624.598	390.81
624.946	386.28
625.295	386.63
625.643	386
625.991	385.07
626.34	381.47
626.688	379.98
627.036	381
627.384	380.65
627.732	380.8
628.08	376.5
628.428	378.85
628.776	377.69
629.124	378
629.471	379.14
629.819	381.26
630.167	386.89
630.514	391.29
630.862	396.37
631.209	401.53
631.557	400.95
631.904	396.2
632.251	390.19
632.599	381.39
632.946	376.63
633.293	370.69
633.64	369.04
633.987	366.04
634.334	366.51
634.681	365.65
635.028	363.62
635.375	365.86
635.722	363.26
636.068	364.33
636.415	362.88
636.762	364.91
637.108	365.66
637.455	363.58
637.801	363.33
638.147	361.46
638.494	363.48
638.84	361.51
639.186	361.11
639.532	361.28
639.878	363.51
640.225	361.83
640.571	362.91
640.916	361.51
641.262	362.43
641.608	362.41
641.954	361.99
642.3	362.09
642.645	362.89
642.991	364.96
643.337	364.53
643.682	364.21
644.028	361.95
644.373	362.94
644.718	365.46
645.064	362.07
645.409	362.05
645.754	362.84
646.099	364.28
646.444	363.64
646.789	364
647.134	363.72
647.479	364.23
647.824	363.31
648.169	364.87
648.513	361.79
648.858	365.54
649.203	362.08
649.547	364.93
649.892	365.88
650.236	369.05
650.581	370.99
650.925	370.99
651.269	369.13
651.613	370.27
651.958	368.14
652.302	364.71
652.646	365.33
652.99	365.45
653.334	363.91
653.678	363.89
654.022	365.01
654.365	363.17
654.709	362.4
655.053	362.39
655.396	362.92
655.74	364.32
656.083	362.78
656.427	361.7
656.77	360.87
657.114	361.6
657.457	358.76
657.8	359.53
658.143	361.59
658.486	361.98
658.83	359.58
659.173	358.1
659.516	361.8
659.858	360.14
660.201	359.2
660.544	359.82
660.887	358.08
661.229	361.68
661.572	359.61
661.915	361.64
662.257	363.92
662.6	367.47
662.942	366.01
663.284	365.54
663.627	364.24
663.969	365.6
664.311	363.32
664.653	364.35
664.995	362.41
665.337	360.6
665.679	361.74
666.021	361.9
666.363	360.31
666.705	359.85
667.046	362.18
667.388	361.57
667.73	362.16
668.071	360.82
668.413	360.67
668.754	361.38
669.096	362.78
669.437	362.1
669.778	361.84
670.119	361.48
670.461	361.35
670.802	360.79
671.143	358.51
671.484	361.08
671.825	360.69
672.165	359.13
672.506	360.31
672.847	359.49
673.188	357.82
673.528	363.05
673.869	359.64
674.21	360.5
674.55	359.8
674.89	359.66
675.231	360.23
675.571	358.62
675.911	361.03
676.252	359.91
676.592	358.92
676.932	359.92
677.272	359.17
677.612	359.41
677.952	360.63
678.292	360.52
678.631	358.51
678.971	362.05
679.311	360.53
679.651	360.96
679.99	359.6
680.33	361.31
680.669	361
681.009	359.38
681.348	359.48
681.687	360.15
682.026	359.8
682.366	361.38
682.705	358.36
683.044	359.19
683.383	359.91
683.722	358.52
684.061	358.8
684.4	360.2
684.738	359.89
685.077	358.31
685.416	358.85
685.754	358.88
686.093	359.18
686.431	358.41
686.77	359.48
687.108	358.83
687.447	361.36
687.785	361.03
688.123	363.19
688.461	362.94
688.799	362.47
689.137	359.56
689.475	359.68
689.813	358.29
690.151	360.32
690.489	359.31
690.827	359.99
691.164	358.73
691.502	356.58
691.84	358.88
692.177	358.39
692.515	358.84
692.852	359.13
693.189	358.66
693.527	358.25
693.864	360.08
694.201	358.14
694.538	361.66
694.875	358.44
695.212	360.05
695.549	359.89
695.886	357.35
696.223	357.86
696.56	358.33
696.897	357.91
697.233	357.94
697.57	357.17
697.906	355.99
698.243	357.05
698.579	355.96
698.916	356.37
699.252	355.65
699.588	356.4
699.924	357.86
700.261	356.05
700.597	357.89
700.933	355.61
701.269	356.17
701.605	357.7
701.941	358.39
702.276	356.99
702.612	357.19
702.948	356.23
703.283	357.26
703.619	358.13
703.954	358.77
704.29	357.34
704.625	360.54
704.961	358.49
705.296	359.06
705.631	358.97
705.966	361.98
706.301	362.21
706.637	364.44
706.972	365.9
707.306	370.16
707.641	367.89
707.976	369.27
708.311	365.8
708.646	367.82
708.98	369.44
709.315	372.18
709.649	372.12
709.984	369.02
710.318	367.21
710.653	365.59
710.987	364.07
711.321	362.92
711.655	361.67
711.989	364.81
712.324	365.38
712.658	367.54
712.992	369.42
713.325	366.54
713.659	364.36
713.993	361.89
714.327	361.55
714.66	359.51
714.994	357.8
715.328	356.45
715.661	357.3
715.994	358.19
716.328	356.3
716.661	355.87
716.994	356.68
717.328	356.97
717.661	354.75
717.994	357.16
718.327	356.15
718.66	355.84
718.993	358.26
719.325	355.66
719.658	355.75
719.991	356.35
720.324	355.35
720.656	357.33
720.989	353.9
721.321	355.9
721.654	357.55
721.986	356.26
722.318	356.43
722.651	355.23
722.983	357.85
723.315	356.28
723.647	354.94
723.979	355.04
724.311	356.57
724.643	354.78
724.975	353.75
725.307	356.38
725.638	356.57
725.97	355.3
726.302	356.07
726.633	356.11
726.965	353.6
727.296	355.95
727.628	357.83
727.959	356.11
728.29	357.42
728.621	355.87
728.952	354.86
729.284	355.82
729.615	355.68
729.945	356.86
730.276	356.62
730.607	355.44
730.938	356.31
731.269	354.85
731.599	356.07
731.93	354.18
732.261	353.11
732.591	355.92
732.922	355.03
733.252	356.53
733.582	354.72
733.912	356.92
734.243	355.04
734.573	357.24
734.903	355.97
735.233	355.92
735.563	354.71
735.893	356.91
736.223	354.3
736.552	355.1
736.882	355.45
737.212	356.03
737.541	355.75
737.871	356.17
738.2	354.71
738.53	355.84
738.859	355.71
739.188	354.35
739.518	356.99
739.847	355.69
740.176	355.77
740.505	353.56
740.834	356.18
741.163	354.25
741.492	355.26
741.821	354.14
742.15	355.1
742.478	356.69
742.807	353.99
743.136	355.47
743.464	354.7
743.793	354.46
744.121	353.87
744.449	353.87
744.778	355.22
745.106	355.13
745.434	355.77
745.762	354.54
746.09	354.47
746.418	355.41
746.746	354.23
747.074	354.69
747.402	355.11
747.73	355.19
748.057	353.71
748.385	356.08
748.712	354.28
749.04	354.87
749.367	353.41
749.695	355.68
750.022	354.4
750.349	353.8
750.677	355.37
751.004	360.73
751.331	356.37
751.658	355.68
751.985	354.1
752.312	355.38
752.639	352.7
752.966	353.33
753.292	354.68
753.619	355.13
753.946	355.26
754.272	354.2
754.599	355.31
754.925	354.84
755.251	354.66
755.578	355.16
755.904	353.7
756.23	354.27
756.556	355.26
756.882	354.62
757.208	355.21
757.534	354.1
757.86	353.68
758.186	352.12
758.512	353.5
758.838	354.31
759.163	353.75
759.489	354.37
759.814	353.38
760.14	355.03
760.465	353.13
760.791	352.83
761.116	352.93
761.441	354.56
761.766	353.73
762.092	355.84
762.417	355.1
762.742	353.88
763.066	353.67
763.391	354.06
763.716	354.04
764.041	355.55
764.366	355.21
764.69	355.76
765.015	352.57
765.339	353.23
765.664	354.05
765.988	355.05
766.312	354.59
766.637	354.75
766.961	354.24
767.285	353.93
767.609	355.71
767.933	353.34
768.257	354.59
768.581	353.63
768.905	354.52
769.229	353.81
769.552	353.5
769.876	353.11
770.2	352.17
770.523	353.8
770.847	352.97
771.17	352.37
771.493	352.22
771.817	352.76
772.14	355.06
772.463	355.05
772.786	352.83
773.109	355.18
773.432	354.73
773.755	354.45
774.078	353.37
774.401	354.21
774.724	353.34
775.046	352.15
775.369	356.34
775.692	353.8
776.014	353.83
776.336	352.62
776.659	353.88
776.981	355.97
777.303	351.94
777.626	353.12
777.948	352.82
778.27	353.29
778.592	353.03
778.914	353.74
779.236	351.96
779.557	354.61
779.879	353.27
780.201	355.17
780.523	352.93
780.844	353.6
781.166	351.85
781.487	352.75
781.809	353.3
782.13	354.36
782.451	353.23
782.772	353.32
783.094	353.97
783.415	354.54
783.736	354.29
784.057	350.78
784.378	352.41
784.698	353.14
785.019	354.19
785.34	352.5
785.661	355.06
785.981	352.18
786.302	352.46
786.622	354.05
786.943	354.31
787.263	352.27
787.583	351.77
787.903	353.02
788.224	352.82
788.544	351.29
788.864	353.56
789.184	353.62
789.504	354.56
789.824	352.18
790.143	353.6
790.463	350.03
790.783	352.41
791.102	354.11
791.422	352.03
791.741	352.79
792.061	353.49
792.38	352.94
792.699	351.46
793.019	353.39
793.338	353.76
793.657	353.33
793.976	353.22
794.295	352.9
794.614	352.13
794.933	354.32
795.252	354.68
795.57	353.94
795.889	352.86
796.208	353.91
796.526	354.38
796.845	352.99
797.163	353.95
797.482	354.24
797.8	353.38
798.118	352.52
798.436	353.1
798.754	352.81
799.073	351.37
799.391	351.95
799.708	354.1
800.026	353.12
800.344	353.12
800.662	351.33
800.98	350.68
801.297	353.2
801.615	352.82
801.932	351.12
802.25	352.3
802.567	351.29
802.884	352.35
803.202	352.89
803.519	353.3
803.836	352.93
804.153	351.68
804.47	353.59
804.787	353.41
805.104	350.91
805.421	354.57
805.737	350.43
806.054	352.63
806.371	351.78
806.687	351.29
807.004	353.22
807.32	354.13
807.637	352.01
807.953	352.91
808.269	353.92
808.585	349.16
808.902	350.89
809.218	352.57
809.534	353.15
809.85	350.96
810.165	353.92
810.481	352.01
810.797	353.89
811.113	353.44
811.428	350.97
811.744	353.44
812.059	353.81
812.375	353.67
812.69	353.67
813.006	353.49
813.321	351.73
813.636	353.04
813.951	350.21
814.266	352.09
814.581	352.53
814.896	351.8
815.211	352.68
815.526	350.88
815.841	351.13
816.155	351.21
816.47	351.36
816.784	352.63
817.099	349.19
817.413	352.04
817.728	353.99
818.042	352.29
818.356	351.61
818.67	351.31
818.985	351.2
819.299	350.75
819.613	350.53
819.926	352.23
820.24	351.38
820.554	349.61
820.868	352.47
821.182	351.04
821.495	350.33
821.809	351.5
822.122	352.72
822.436	353.3
822.749	352.03
823.062	351.84
823.376	352.33
823.689	352.02
824.002	351.95
824.315	349.92
824.628	352.03
824.941	351.95
825.254	350.39
825.566	350.28
825.879	349.23
826.192	351.99
826.504	351.67
826.817	350.11
827.129	351.47
827.442	351.01
827.754	350.59
828.066	350.32
828.379	351.1
828.691	351.77
829.003	352.55
829.315	348.26
829.627	350.81
829.939	352.07
830.251	349
830.562	351.32
830.874	353.45
831.186	349.5
831.497	351.68
831.809	351.64
832.12	352.25
832.432	351.38
832.743	350.2
833.054	351.53
833.365	350.47
833.676	350.84
833.988	351.72
834.299	352.83
834.61	351.57
834.92	348.82
835.231	350.66
835.542	350.34
835.853	351.29
836.163	352.35
836.474	349.49
836.784	351.95
837.095	352.18
837.405	351.69
837.715	350.72
838.026	350.82
838.336	352.73
838.646	350.91
838.956	351.35
839.266	353.14
839.576	351.66
839.886	351.01
840.195	351.31
840.505	350.63
840.815	350.55
841.124	351.27
841.434	351.02
841.743	351.18
842.053	348.52
842.362	352.43
842.671	351.16
842.981	350.79
843.29	350.9
843.599	350.83
843.908	351.72
844.217	350.93
844.526	350.69
844.835	352.28
845.143	349.21
845.452	351.81
845.761	350.89
846.069	349.16
846.378	352.25
846.686	351.47
846.995	349.5
847.303	350.14
847.611	350.75
847.919	349.77
848.227	350.81
848.535	351.56
848.843	351.5
849.151	350.07
849.459	350.01
849.767	350.37
850.075	351.64
850.382	351.08
850.69	351.22
850.998	349.27
851.305	348.97
851.612	351.77
851.92	351.83
852.227	350.24
852.534	349.56
852.841	349.76
853.148	352.12
853.455	351.05
853.762	351.43
854.069	349.94
854.376	350.53
854.683	351.36
854.99	348.08
855.296	350.47
855.603	350.53
855.909	349.99
856.216	349.81
856.522	351.31
856.828	348.88
857.135	352.82
857.441	350.37
857.747	349.52
858.053	349
858.359	349.28
858.665	350.85
858.971	348.63
859.276	351.18
859.582	350.39
859.888	347.35
860.193	350.32
860.499	351.17
860.804	350.26
861.11	353.12
861.415	352.29
861.72	348.91
862.026	350.85
862.331	349.29
862.636	350.6
862.941	350.22
863.246	350.57
863.551	350.61
863.855	348.68
864.16	350.13
864.465	350.47
864.769	351.83
865.074	350.43
865.378	349.66
865.683	351.23
865.987	350.13
866.291	350.12
866.596	351.46
866.9	350.3
867.204	349.3
867.508	349.05
867.812	349.46
868.116	350.64
868.42	349.75
868.723	349.54
869.027	348.85
869.331	349.36
869.634	348.51
869.938	350.96
870.241	349.44
870.544	349.27
870.848	348.68
871.151	351.21
871.454	348.95
871.757	350.46
872.06	348.96
872.363	350.11
872.666	348.53
872.969	350.09
873.272	349.98
873.574	351.58
873.877	348.1
874.18	350.05
874.482	349.04
874.785	348.75
875.087	347.47
875.389	350.35
875.692	348.43
875.994	348.29
876.296	350.88
876.598	349.05
876.9	350.01
877.202	349.76
877.504	348.75
877.805	350.47
878.107	347.25
878.409	350.38
878.71	349.3
879.012	348.36
879.313	348.01
879.615	349.64
879.916	349.39
880.217	349.22
880.518	349.46
880.82	350.23
881.121	350.27
881.422	348.3
881.723	348.06
882.023	347.99
882.324	349.78
882.625	347.96
882.926	348.44
883.226	350.14
883.527	352.76
883.827	348.67
884.128	345.8
884.428	347.38
884.728	348.65
885.028	348.44
885.328	349.73
885.629	348.82
885.929	350.1
886.228	349.32
886.528	348.97
886.828	347.41
887.128	349.78
887.427	349.8
887.727	347.96
888.027	349.64
888.326	347.02
888.625	349.97
888.925	348.68
889.224	348.14
889.523	349.39
889.822	348.79
890.121	349.45
890.42	350.6
890.719	348.62
891.018	350.23
891.317	349.89
891.616	348.28
891.914	349.06
892.213	347.08
892.512	347.89
892.81	349.18
893.108	348.48
893.407	348.52
893.705	346.96
894.003	347.72
894.301	349.13
894.599	348.35
894.897	348.47
895.195	347.88
895.493	345.57
895.791	350.41
896.089	347.91
896.386	348.22
896.684	348.88
896.981	348.99
897.279	345.17
897.576	348.98
897.874	349.99
898.171	349.83
898.468	349.91
898.765	348.04
899.062	348.77
899.359	348.48
899.656	350.48
899.953	348.49
900.25	347.99
900.547	348.05
900.843	347.82
901.14	347.4
901.436	347.83
901.733	347.47
902.029	348.42
902.325	348.61
902.622	348.46
902.918	350.28
903.214	348.95
903.51	348.12
903.806	347.62
904.102	347.51
904.398	348.99
904.694	347.16
904.989	348.38
905.285	348.34
905.581	348.37
905.876	347.72
906.171	349.52
906.467	349.85
906.762	348.14
907.057	348.03
907.353	347.8
907.648	348.88
907.943	350.49
908.238	348.52
908.533	347.48
908.827	349.45
909.122	347.72
909.417	347.58
909.711	347.73
910.006	347.16
910.301	347.33
910.595	349.7
910.889	349.35
911.184	348.23
911.478	347.93
911.772	350.82
912.066	348.64
912.36	347.96
912.654	348.43
912.948	350.68
913.242	348.94
913.536	348.95
913.829	347.07
914.123	346.94
914.416	348.42
914.71	348.92
915.003	346.13
915.297	349.29
915.59	347.02
915.883	348.63
916.176	346.61
916.469	347.9
916.762	349.25
917.055	347.49
917.348	347.77
917.641	348.06
917.934	347.12
918.226	347.55
918.519	347.24
918.811	348.14
919.104	346.72
919.396	349.83
919.689	348.04
919.981	347.19
920.273	348.41
920.565	348.27
920.857	348.03
921.149	348.45
921.441	347.41
921.733	348.59
922.025	347.64
922.316	347.63
922.608	347.31
922.9	348.51
923.191	347.2
923.483	345.97
923.774	346.63
924.065	345.92
924.357	347.68
924.648	348.39
924.939	347.83
925.23	348.69
925.521	346.57
925.812	346.34
926.102	345.98
926.393	347.97
926.684	348.52
926.975	345.85
927.265	348.68
927.556	350.13
927.846	347.55
928.136	346.17
928.427	346.99
928.717	347.51
929.007	346.97
929.297	348.76
929.587	348.96
929.877	347.86
930.167	348.82
930.457	348.26
930.746	348.63
931.036	347.81
931.325	350.1
931.615	347.8
931.904	347.76
932.194	346.69
932.483	348.02
932.772	345.79
933.062	345.96
933.351	347
933.64	348.14
933.929	347.12
934.218	348.28
934.506	347.33
934.795	346.86
935.084	346.52
935.372	346.85
935.661	344.57
935.949	347.52
936.238	347.74
936.526	345.92
936.815	347.58
937.103	347.38
937.391	347.08
937.679	346.85
937.967	345.77
938.255	347.22
938.543	347.14
938.831	347.28
939.118	346.79
939.406	346.41
939.693	347.14
939.981	344.17
940.268	346.23
940.556	348.44
940.843	348.23
941.13	347.3
941.418	346.75
941.705	346.98
941.992	345.96
942.279	347.25
942.566	346.15
942.852	345.51
943.139	345.25
943.426	346.76
943.712	347.6
943.999	345.43
944.285	346.41
944.572	346.93
944.858	345.9
945.144	347.89
945.431	345.77
945.717	347.24
946.003	346.7
946.289	346.51
946.575	347.45
946.861	348.06
947.146	344.51
947.432	348.3
947.718	346.36
948.003	345.7
948.289	346.34
948.574	345.58
948.86	344.54
949.145	347.62
949.43	347.7
949.715	345.73
950	346.27
950.285	345.82
950.57	347.44
950.855	347.9
951.14	347.17
951.425	345.88
951.709	344.68
951.994	345.71
952.278	345.56
952.563	346.9
952.847	346.53
953.132	347.92
953.416	346.54
953.7	345.36
953.984	346.31
954.268	347.41
954.552	348
954.836	345.92
955.12	347.38
955.404	348.28
955.687	347.23
955.971	346.39
956.254	345.12
956.538	346.89
956.821	345.89
957.105	346.52
957.388	345.37
957.671	346.18
957.954	346.95
958.237	347.16
958.52	346.19
958.803	346.94
959.086	345.57
959.369	343.75
959.652	346.3
959.934	345.33
960.217	347.52
960.499	347.55
960.782	346.6
961.064	345.67
961.346	346.76
961.629	345.95
961.911	345.26
962.193	347.77
962.475	347.1
962.757	346.27
963.039	345.83
963.32	346.43
963.602	345.45
963.884	345.92
964.165	342.24
964.447	346.39
964.728	346.57
965.01	347.07
965.291	346.6
965.572	345.52
965.853	347.17
966.134	347.73
966.415	347.79
966.696	346.08
966.977	346.87
967.258	346.2
967.539	345.29
967.819	346.3
968.1	346.33
968.38	346.08
968.661	348.76
968.941	346.01
969.222	345.65
969.502	346.03
969.782	344.42
970.062	348.62
970.342	347.29
970.622	344.53
970.902	344.45
971.182	343.9
971.462	345.78
971.741	346.15
972.021	344.57
972.3	346.1
972.58	346.07
972.859	345.2
973.138	346.12
973.418	346.14
973.697	344.46
973.976	346.57
974.255	346.97
974.534	347.01
974.813	346.48
975.092	343.3
975.37	346.23
975.649	346.38
975.928	345.5
976.206	345.44
976.485	345.15
976.763	344.56
977.041	344.94
977.32	345.66
977.598	348
977.876	346.72
978.154	346.4
978.432	345.64
978.71	345.89
978.988	344.94
979.265	344.71
979.543	346.84
979.821	344.8
980.098	345.37
980.376	343.8
980.653	346.15
980.93	344.09
981.208	345.28
981.485	344.44
981.762	346.85
982.039	344.91
982.316	345.5
982.593	345.18
982.87	345.93
983.146	346.44
983.423	344.1
983.7	347.7
983.976	345.42
984.253	345.87
984.529	347.03
984.805	347.39
985.082	344.49
985.358	344.49
985.634	345.55
985.91	346.82
986.186	345.7
986.462	344.85
986.738	344.51
987.013	344.92
987.289	344.1
987.565	344.86
987.84	343.53
988.116	343.75
988.391	345.23
988.666	345.08
988.942	344.91
989.217	346.12
989.492	346.99
989.767	345.4
990.042	345.66
990.317	347.19
990.592	344.09
990.866	346.03
991.141	345
991.416	344.48
991.69	346.16
991.964	346.28
992.239	344.51
992.513	346.59
992.787	345.03
993.062	344.71
993.336	345.67
993.61	346.25
993.884	344.17
994.158	346.68
994.431	346.21
994.705	345.74
994.979	345.33
995.252	345.92
995.526	345.29
995.799	344.48
996.073	344.26
996.346	344.73
996.619	346.73
996.892	345.31
997.165	342.85
997.438	345.11
997.711	345.45
997.984	345.15
998.257	344.06
998.53	344.74
998.802	344.53
999.075	344.97
999.347	345.49
999.62	344.46
999.892	346.28
1000.165	345.87
1000.437	344.9
1000.709	347.17
1000.981	345.43
1001.253	345.98
1001.525	344.37
1001.797	343.98
1002.068	344.58
1002.34	343.08
1002.612	344.44
1002.883	346.7
1003.155	344.78
1003.426	344.48
1003.698	345.53
1003.969	344.3
1004.24	344.63
1004.511	344.36
1004.782	343.64
1005.053	343.98
1005.324	344.72
1005.595	342.57
1005.866	344.43
1006.136	343.11
1006.407	344.42
1006.678	344.18
1006.948	343.98
1007.218	345.77
1007.489	345.5
1007.759	343.07
1008.029	342.71
1008.299	344.44
1008.569	345.33
1008.839	345.36
1009.109	343.89
1009.379	345.69
1009.649	343.01
1009.918	343.89
1010.188	344.03
1010.458	342.71
1010.727	343.81
1010.996	342.92
1011.266	344.34
1011.535	343.72
1011.804	344.25
1012.073	343.46
1012.342	344.15
1012.611	345.11
1012.88	344.3
1013.149	345.81
1013.417	343.31
1013.686	342.87
1013.955	344.43
1014.223	345.68
1014.492	344.81
1014.76	342.93
1015.028	343.49
1015.296	343.03
1015.565	343.78
1015.833	344.29
1016.101	344.71
1016.368	343.77
1016.636	343.89
1016.904	343.99
1017.172	342.6
1017.439	344.15
1017.707	343.7
1017.974	342.8
1018.242	344.7
1018.509	344.87
1018.776	343.07
1019.044	343.93
1019.311	344.8
1019.578	342.34
1019.845	342.18
1020.112	343.76
1020.378	343.76
1020.645	343.76
