Data from 190619_Kr_36K_dark_FLMS138901_19-34-58-098.txt Node
Date: Wed Jun 19 19:34:58 EDT 2019
User: pSAM
Spectrometer: FLMS13890
Trigger mode: 0
Integration Time (sec): 5.000000E-3
Scans to average: 1000
Electric dark correction enabled: true
Nonlinearity correction enabled: false
Boxcar width: 0
XAxis mode: Wavelengths
Number of Pixels in Spectrum: 2048
>>>>>Begin Spectral Data<<<<<
342.097	-58.83
342.483	-58.83
342.868	-58.83
343.254	-100.83
343.639	-103.97
344.025	-102.37
344.41	-96.87
344.796	-90.64
345.181	-80.38
345.567	-68.76
345.952	-51.63
346.337	-36.17
346.722	-18.74
347.107	-0.49
347.493	20.06
347.878	36.71
348.263	58.43
348.648	78.37
349.033	96.83
349.418	117.08
349.802	138.58
350.187	155.08
350.572	171.72
350.957	189.25
351.342	205.77
351.726	223.26
352.111	235.29
352.495	249.55
352.88	260.47
353.264	272.05
353.649	282.7
354.033	293.51
354.418	300.48
354.802	309.74
355.186	317.15
355.57	321.83
355.955	326.93
356.339	333.58
356.723	335.53
357.107	337.31
357.491	370.58
357.875	344.92
358.259	344.87
358.643	343.49
359.026	344.84
359.41	344.89
359.794	344.42
360.178	341.11
360.561	343.26
360.945	339.4
361.329	340.81
361.712	337.73
362.096	337.63
362.479	336.92
362.862	334.63
363.246	329.78
363.629	328.93
364.012	328.37
364.396	326.59
364.779	325.29
365.162	323.78
365.545	321.58
365.928	321.89
366.311	320.76
366.694	319.16
367.077	317.84
367.46	318.87
367.843	317.41
368.226	316.49
368.608	314.92
368.991	315.02
369.374	315.48
369.756	315.09
370.139	312.2
370.521	312.52
370.904	311.63
371.286	313.52
371.669	314.39
372.051	313.3
372.433	314.43
372.816	313.69
373.198	315.78
373.58	315.94
373.962	317.13
374.344	316.29
374.726	317.84
375.108	316
375.49	318.25
375.872	318.2
376.254	319.09
376.636	319.84
377.018	317.65
377.399	320.86
377.781	321.86
378.163	319.98
378.544	323.11
378.926	321.8
379.307	324.24
379.689	323.48
380.07	326.51
380.452	323.73
380.833	324.89
381.214	321.73
381.596	323.51
381.977	325.24
382.358	327.38
382.739	325.02
383.12	329.19
383.501	326.19
383.882	326.94
384.263	328.01
384.644	329.42
385.025	329.42
385.406	328.35
385.787	330.89
386.167	331.19
386.548	330.37
386.929	330.68
387.309	330.79
387.69	330.68
388.07	333
388.451	331.31
388.831	330.32
389.211	333
389.592	333.91
389.972	331.48
390.352	334.2
390.733	334.7
391.113	334.37
391.493	333.45
391.873	334.39
392.253	335.96
392.633	334.49
393.013	333.78
393.393	336.46
393.772	337.72
394.152	337.49
394.532	336.26
394.912	338.74
395.291	336.79
395.671	336.83
396.05	337.59
396.43	338.39
396.809	338.24
397.189	340.94
397.568	337.65
397.948	340.05
398.327	340.58
398.706	340.23
399.085	342.11
399.465	342.03
399.844	341.16
400.223	340.97
400.602	342.22
400.981	342.35
401.36	342.85
401.739	342.55
402.117	341.67
402.496	344.91
402.875	344.14
403.254	341.44
403.632	344.5
404.011	344.28
404.39	344.16
404.768	344.52
405.147	342.24
405.525	346.27
405.903	345.39
406.282	345.67
406.66	347.06
407.038	346.82
407.417	346.22
407.795	347.5
408.173	347.38
408.551	347.34
408.929	346.97
409.307	346.61
409.685	345.88
410.063	346.77
410.441	350.23
410.818	348.6
411.196	348.36
411.574	348.67
411.952	348.44
412.329	351.1
412.707	349.88
413.084	348.96
413.462	349.59
413.839	348.59
414.217	351.68
414.594	349.78
414.971	351.97
415.349	351.29
415.726	350.75
416.103	353.15
416.48	351.17
416.857	352.39
417.234	354.44
417.611	352.61
417.988	352.18
418.365	353.01
418.742	352.89
419.119	354.61
419.495	353.89
419.872	354.69
420.249	362.57
420.625	357.31
421.002	354.19
421.379	353.73
421.755	354.56
422.131	354.91
422.508	355.23
422.884	354.55
423.26	355.22
423.637	354.68
424.013	358.18
424.389	356.18
424.765	357.97
425.141	355.89
425.517	355.51
425.893	356.45
426.269	357.46
426.645	355.72
427.021	357.63
427.397	360
427.772	359.15
428.148	358.43
428.524	359.92
428.899	359.93
429.275	357.62
429.651	360.07
430.026	359.69
430.401	360.49
430.777	359.89
431.152	359.84
431.527	360.94
431.903	360.92
432.278	360.24
432.653	361.34
433.028	360.05
433.403	360.69
433.778	359.48
434.153	360.86
434.528	361.86
434.903	361.37
435.278	362.35
435.653	359.58
436.027	363.24
436.402	361.19
436.777	362.95
437.151	363.29
437.526	363.48
437.9	362.78
438.275	362.38
438.649	360.49
439.023	364.66
439.398	363.91
439.772	363.87
440.146	364.54
440.52	364.48
440.895	363.6
441.269	364.79
441.643	363.94
442.017	362.59
442.391	364.39
442.765	363.46
443.138	363.74
443.512	365.92
443.886	365.79
444.26	364.08
444.633	365.24
445.007	365.68
445.38	365.41
445.754	365.31
446.127	366.1
446.501	365.4
446.874	365.74
447.248	363.29
447.621	366.7
447.994	364.2
448.367	365.83
448.741	366.72
449.114	365.45
449.487	368.57
449.86	366.84
450.233	365.66
450.606	366.51
450.978	366.8
451.351	369.61
451.724	366.54
452.097	367.51
452.469	366.97
452.842	367.04
453.215	366.33
453.587	366.79
453.96	368.5
454.332	366.4
454.704	369.96
455.077	367.51
455.449	367.54
455.821	369.37
456.194	369.74
456.566	368.32
456.938	369.54
457.31	366.73
457.682	368.49
458.054	368.19
458.426	367.77
458.798	370.32
459.17	369.28
459.541	368.7
459.913	369.96
460.285	370.67
460.656	369.86
461.028	368.32
461.399	368.9
461.771	369.51
462.142	371.51
462.514	368.41
462.885	368.5
463.256	370.54
463.628	369.16
463.999	370.86
464.37	370.44
464.741	370.63
465.112	369.98
465.483	370.12
465.854	368.44
466.225	369.76
466.596	367.67
466.967	370.46
467.338	369.23
467.708	371.43
468.079	371.8
468.45	370.23
468.82	370.79
469.191	369.79
469.561	371.98
469.932	370.85
470.302	370.79
470.673	371.55
471.043	372.59
471.413	369.57
471.783	371.23
472.154	371.03
472.524	371.76
472.894	370.49
473.264	369.49
473.634	372.7
474.004	371.02
474.374	371.18
474.743	370.98
475.113	370.85
475.483	370.92
475.853	372.1
476.222	371.27
476.592	372.98
476.961	369.07
477.331	371.2
477.7	370.22
478.07	370.97
478.439	371.4
478.808	370.46
479.178	370.85
479.547	370.91
479.916	369.31
480.285	373.23
480.654	373.35
481.023	371.66
481.392	370.78
481.761	372.82
482.13	368.57
482.499	372.66
482.867	371.65
483.236	371.07
483.605	371.83
483.973	373.89
484.342	371.46
484.71	371.26
485.079	374.04
485.447	371.39
485.816	373.93
486.184	371.45
486.552	370.64
486.921	371.81
487.289	372.28
487.657	370.01
488.025	372.84
488.393	371.21
488.761	372.78
489.129	371.91
489.497	371.29
489.865	371.81
490.233	371.93
490.6	371.95
490.968	371.67
491.336	373.74
491.703	372.59
492.071	372.87
492.438	372.65
492.806	373.98
493.173	375.04
493.541	371.22
493.908	370.55
494.275	372.82
494.642	370.21
495.01	372.14
495.377	370.5
495.744	371.11
496.111	372.82
496.478	373.08
496.845	370.55
497.211	374.14
497.578	372.08
497.945	371.84
498.312	371.4
498.678	372.6
499.045	372.59
499.412	370.38
499.778	372.57
500.145	371.52
500.511	373.79
500.878	372.76
501.244	372.81
501.61	370.72
501.976	371.16
502.343	372.92
502.709	372
503.075	371.57
503.441	370.6
503.807	373.16
504.173	371.37
504.539	371.57
504.905	373.5
505.27	372.78
505.636	374.3
506.002	372.11
506.367	371.4
506.733	371.86
507.099	372.07
507.464	373.35
507.829	372.43
508.195	372.87
508.56	370.88
508.926	373.3
509.291	371.69
509.656	371.26
510.021	371.5
510.386	373.02
510.751	373.88
511.116	371.15
511.481	370.69
511.846	373.13
512.211	371.94
512.576	371.42
512.941	371.55
513.305	370.81
513.67	372.47
514.035	370.21
514.399	372.75
514.764	370.85
515.128	370.22
515.493	371.26
515.857	372.19
516.221	371.81
516.585	371.96
516.95	371.94
517.314	370.71
517.678	371.67
518.042	369.76
518.406	372.18
518.77	370.43
519.134	371.29
519.498	369.44
519.862	371.2
520.225	369.71
520.589	372.54
520.953	371.35
521.316	372.09
521.68	371.06
522.043	371.49
522.407	372.87
522.77	372.54
523.134	369.81
523.497	370.56
523.86	370.18
524.223	370.61
524.587	371.66
524.95	371.49
525.313	370.21
525.676	371.2
526.039	368.46
526.402	369.67
526.765	370.72
527.127	369.97
527.49	368.91
527.853	371.01
528.215	371.28
528.578	370.85
528.941	369.34
529.303	368.83
529.666	371.68
530.028	368.82
530.39	368.91
530.753	370.61
531.115	370.13
531.477	369.38
531.839	372.43
532.201	370.84
532.564	369.62
532.926	371.84
533.287	371.74
533.649	371.4
534.011	369.56
534.373	368.87
534.735	370.09
535.097	369.21
535.458	370.95
535.82	369.49
536.181	370.28
536.543	370.22
536.904	370.03
537.266	371.68
537.627	371.41
537.988	368.89
538.35	369.47
538.711	370.31
539.072	371.79
539.433	369.83
539.794	370.76
540.155	369.39
540.516	370.98
540.877	369.87
541.238	368.44
541.599	370.25
541.959	369.02
542.32	367.69
542.681	369.11
543.041	368.69
543.402	371.08
543.762	368.12
544.123	368.85
544.483	369.61
544.844	370.03
545.204	367.44
545.564	369.41
545.924	368.6
546.284	370.91
546.644	368.75
547.004	369.69
547.364	368.49
547.724	371.25
548.084	370.09
548.444	367.75
548.804	369.62
549.164	366.66
549.523	370.18
549.883	369.59
550.242	369.63
550.602	370.97
550.961	367.78
551.321	368.92
551.68	370.77
552.04	369.85
552.399	368.94
552.758	368.57
553.117	368.75
553.476	369.59
553.835	369.4
554.194	367.79
554.553	367.23
554.912	367.61
555.271	368.35
555.63	368.82
555.989	368.55
556.347	369.18
556.706	367.5
557.065	367.63
557.423	368.57
557.782	366.93
558.14	368.93
558.499	369.09
558.857	369.56
559.215	368.3
559.573	369.97
559.932	368.86
560.29	368.24
560.648	367.02
561.006	367.83
561.364	367.83
561.722	369.41
562.08	366.64
562.438	368.95
562.795	368.93
563.153	366.51
563.511	369.13
563.868	370.04
564.226	368.35
564.583	367.58
564.941	368.06
565.298	366.95
565.656	368.54
566.013	367.84
566.37	367.98
566.727	368.39
567.085	367.09
567.442	367.83
567.799	366.84
568.156	367.72
568.513	366.61
568.87	366.91
569.226	366.74
569.583	366.64
569.94	368
570.297	368.09
570.653	366.86
571.01	367.25
571.366	368.68
571.723	366.68
572.079	367.05
572.436	366.43
572.792	367.09
573.148	365.01
573.505	366.93
573.861	368.66
574.217	365.38
574.573	367.75
574.929	366.9
575.285	365.36
575.641	367.7
575.997	366.47
576.352	365.55
576.708	365.68
577.064	368.19
577.42	366.98
577.775	367.02
578.131	365.29
578.486	365.84
578.842	368.02
579.197	366.5
579.552	368.28
579.908	367.47
580.263	366.07
580.618	367.59
580.973	365.48
581.328	366.98
581.683	366.59
582.038	366.97
582.393	366.89
582.748	367.29
583.103	366.84
583.458	365.01
583.812	367.07
584.167	365.62
584.522	366.82
584.876	368.07
585.231	364.35
585.585	367
585.939	364.93
586.294	365.67
586.648	366.68
587.002	367.73
587.356	365.86
587.711	366.26
588.065	365.66
588.419	368.4
588.773	366.73
589.127	367.26
589.48	365.15
589.834	367.66
590.188	365.82
590.542	364.84
590.895	365.91
591.249	366.62
591.603	367.59
591.956	365.05
592.309	364.63
592.663	366.28
593.016	365.79
593.369	365.69
593.723	369.08
594.076	366.45
594.429	366.05
594.782	364.67
595.135	366.56
595.488	364.93
595.841	365.78
596.194	365.54
596.547	365.99
596.899	365.98
597.252	368.02
597.605	364.9
597.957	364.34
598.31	366.11
598.662	365.26
599.015	366.26
599.367	363.1
599.719	364.64
600.072	365.44
600.424	367.15
600.776	363.76
601.128	365.12
601.48	365.45
601.832	365.16
602.184	365.86
602.536	366.17
602.888	365.13
603.24	362.89
603.592	364.69
603.943	363.93
604.295	365.37
604.646	363.63
604.998	364.25
605.349	366.42
605.701	364.5
606.052	364.95
606.404	366.22
606.755	364.5
607.106	364.97
607.457	364.51
607.808	365.01
608.159	365.86
608.51	367.72
608.861	364.2
609.212	365.4
609.563	366.68
609.914	365.33
610.265	364.67
610.615	362.37
610.966	364.7
611.316	366.02
611.667	365.44
612.017	365.71
612.368	364
612.718	365.81
613.068	365.12
613.419	366.59
613.769	365.31
614.119	365.58
614.469	364.86
614.819	364.27
615.169	365.54
615.519	362.87
615.869	363
616.219	364.19
616.568	363.79
616.918	364.85
617.268	364.58
617.617	365.49
617.967	364.8
618.316	366.14
618.666	363.33
619.015	363.57
619.364	365.02
619.714	364.85
620.063	365.05
620.412	364.21
620.761	362.58
621.11	363.45
621.459	365.16
621.808	364.53
622.157	363.24
622.506	362.7
622.855	364.27
623.203	364.82
623.552	363.06
623.901	364.41
624.249	362.21
624.598	362.74
624.946	362.83
625.295	365.09
625.643	365.15
625.991	365.12
626.34	365.18
626.688	365.31
627.036	362.84
627.384	363.6
627.732	363.96
628.08	363.14
628.428	363.13
628.776	362.25
629.124	361.88
629.471	362.34
629.819	363.07
630.167	362.69
630.514	361.35
630.862	361.83
631.209	363.77
631.557	362.51
631.904	361.88
632.251	364.4
632.599	363.95
632.946	361.58
633.293	363.75
633.64	362.34
633.987	363.41
634.334	362.78
634.681	363.23
635.028	363.06
635.375	362.78
635.722	363.65
636.068	363.85
636.415	364.26
636.762	363.32
637.108	362.22
637.455	361.56
637.801	363
638.147	363.36
638.494	362.99
638.84	362.87
639.186	364.76
639.532	361.87
639.878	364.29
640.225	362.71
640.571	363.6
640.916	364.32
641.262	362.47
641.608	362.02
641.954	363.29
642.3	361.6
642.645	363.22
642.991	362.35
643.337	362.83
643.682	363.25
644.028	361.4
644.373	360.91
644.718	361.65
645.064	361.2
645.409	363.57
645.754	363.56
646.099	361.04
646.444	361.53
646.789	363.33
647.134	362.9
647.479	363.99
647.824	364.18
648.169	362.94
648.513	364.31
648.858	362.42
649.203	363.48
649.547	362.8
649.892	361.41
650.236	363.08
650.581	362.57
650.925	360.72
651.269	363.48
651.613	363.13
651.958	360.06
652.302	365.24
652.646	361.06
652.99	362.33
653.334	360.85
653.678	362.72
654.022	363.76
654.365	362.52
654.709	362.1
655.053	362.77
655.396	363.24
655.74	364.48
656.083	363.09
656.427	359.51
656.77	360.98
657.114	361.48
657.457	361.07
657.8	362.76
658.143	359.93
658.486	362.07
658.83	362.21
659.173	360.91
659.516	361.25
659.858	360.17
660.201	360.07
660.544	363.88
660.887	360.27
661.229	361.8
661.572	362.65
661.915	364.14
662.257	361.45
662.6	360.76
662.942	364.1
663.284	360.78
663.627	362.79
663.969	360.78
664.311	362.49
664.653	362.02
664.995	362.71
665.337	362.59
665.679	360.8
666.021	360.63
666.363	363.43
666.705	360.12
667.046	362.24
667.388	361
667.73	362.59
668.071	361.6
668.413	361.72
668.754	361.71
669.096	362.06
669.437	362.58
669.778	362.22
670.119	359.74
670.461	361.92
670.802	359.42
671.143	361.58
671.484	360.89
671.825	361.17
672.165	362.32
672.506	365.13
672.847	361.51
673.188	360.15
673.528	359.88
673.869	361.24
674.21	359.8
674.55	361.8
674.89	362.52
675.231	359.96
675.571	361.5
675.911	362.42
676.252	362.02
676.592	361.41
676.932	360.92
677.272	361.62
677.612	361.04
677.952	359.19
678.292	359.74
678.631	360.41
678.971	359.56
679.311	361.35
679.651	361.93
679.99	362.51
680.33	360.26
680.669	361.36
681.009	362.79
681.348	361.35
681.687	360.01
682.026	361.46
682.366	361.27
682.705	359.65
683.044	361.45
683.383	360.89
683.722	361.06
684.061	359.51
684.4	361.53
684.738	362.22
685.077	359.47
685.416	361.82
685.754	358.78
686.093	361.3
686.431	360.19
686.77	360.54
687.108	362.55
687.447	360.77
687.785	361.08
688.123	359.25
688.461	361.37
688.799	359.82
689.137	360.56
689.475	361.46
689.813	359.29
690.151	360.69
690.489	359.81
690.827	361.09
691.164	361.79
691.502	360.32
691.84	360.91
692.177	360.62
692.515	361.31
692.852	360.81
693.189	360.56
693.527	359.69
693.864	360.95
694.201	359.15
694.538	361.84
694.875	360.39
695.212	360.28
695.549	360.14
695.886	360.67
696.223	362.23
696.56	360.63
696.897	361.17
697.233	358.96
697.57	357.94
697.906	359.56
698.243	360.48
698.579	361.21
698.916	360.81
699.252	360.34
699.588	361.41
699.924	360.29
700.261	362.01
700.597	361.29
700.933	358.3
701.269	360.92
701.605	359.68
701.941	362.13
702.276	359.92
702.612	360.23
702.948	360.04
703.283	359.78
703.619	358.96
703.954	358.12
704.29	357.45
704.625	360.35
704.961	360.85
705.296	361.49
705.631	360.72
705.966	361.1
706.301	359.88
706.637	360.35
706.972	360.02
707.306	360.07
707.641	360.72
707.976	360.31
708.311	362.19
708.646	359.7
708.98	360.28
709.315	357.49
709.649	360.89
709.984	360.14
710.318	360.2
710.653	360.99
710.987	360.15
711.321	361.38
711.655	360.67
711.989	358.85
712.324	359.71
712.658	361.81
712.992	361.42
713.325	360.5
713.659	358.84
713.993	360.55
714.327	359.7
714.66	359.67
714.994	358.56
715.328	359.2
715.661	359.39
715.994	358.67
716.328	360.45
716.661	360.15
716.994	358.41
717.328	360.39
717.661	360.31
717.994	360.13
718.327	359.54
718.66	359.52
718.993	358.42
719.325	360.18
719.658	359.62
719.991	360.08
720.324	359.01
720.656	358.48
720.989	359.08
721.321	359.48
721.654	358.02
721.986	358.66
722.318	358.5
722.651	360.57
722.983	359.46
723.315	358.94
723.647	360.26
723.979	360.37
724.311	358.37
724.643	357.97
724.975	359.76
725.307	361.22
725.638	358.4
725.97	359.36
726.302	360.36
726.633	356.95
726.965	358.64
727.296	357.99
727.628	359.01
727.959	360
728.29	357.85
728.621	359.18
728.952	359.08
729.284	358.5
729.615	358.53
729.945	360.49
730.276	359.17
730.607	359.03
730.938	360.7
731.269	357.95
731.599	358.47
731.93	358.76
732.261	357.85
732.591	357.39
732.922	356.5
733.252	357
733.582	358.22
733.912	360.28
734.243	357.99
734.573	360.41
734.903	359.02
735.233	359.16
735.563	358.55
735.893	358.67
736.223	357.19
736.552	358.14
736.882	358.17
737.212	359.31
737.541	357.7
737.871	357.71
738.2	358.97
738.53	358.41
738.859	357.72
739.188	359.91
739.518	357.29
739.847	356.41
740.176	357.74
740.505	358.64
740.834	359.66
741.163	358.47
741.492	360.38
741.821	360.16
742.15	357.92
742.478	360.34
742.807	358.46
743.136	359.33
743.464	358.17
743.793	355.27
744.121	357.73
744.449	359.7
744.778	357.92
745.106	358.29
745.434	358.03
745.762	359.58
746.09	359.38
746.418	357.58
746.746	358.54
747.074	357.38
747.402	357.61
747.73	359.21
748.057	357.67
748.385	357.5
748.712	360.54
749.04	359.33
749.367	357.69
749.695	359.06
750.022	357.62
750.349	357.4
750.677	359.42
751.004	363.04
751.331	358.6
751.658	357.26
751.985	360
752.312	357.76
752.639	356.77
752.966	357.89
753.292	357.68
753.619	357.32
753.946	357.05
754.272	359.42
754.599	356.12
754.925	358.95
755.251	359.56
755.578	358.79
755.904	356.79
756.23	359.49
756.556	358.13
756.882	359.31
757.208	357.84
757.534	358.71
757.86	356.42
758.186	356.84
758.512	358.99
758.838	357.69
759.163	358.92
759.489	356.38
759.814	358.99
760.14	358.25
760.465	362.2
760.791	357.32
761.116	357.3
761.441	358.34
761.766	358.34
762.092	357.12
762.417	356.11
762.742	356.45
763.066	359.97
763.391	358.05
763.716	357.54
764.041	358.39
764.366	356.3
764.69	356.4
765.015	357.86
765.339	358.53
765.664	356.88
765.988	356.97
766.312	359.18
766.637	356.78
766.961	359
767.285	355.99
767.609	356.22
767.933	357.47
768.257	357.87
768.581	357
768.905	354.8
769.229	355.72
769.552	358.46
769.876	357.52
770.2	358.39
770.523	358.01
770.847	356.11
771.17	357.91
771.493	356.55
771.817	355.73
772.14	357.88
772.463	357.39
772.786	358.63
773.109	358.48
773.432	356.61
773.755	357.75
774.078	359
774.401	357.46
774.724	356.36
775.046	357.8
775.369	356.7
775.692	358.86
776.014	357.84
776.336	356.57
776.659	357.59
776.981	356.34
777.303	356.74
777.626	358.56
777.948	357.32
778.27	357.88
778.592	356.62
778.914	357.59
779.236	356.29
779.557	357.3
779.879	357.37
780.201	356.28
780.523	356.37
780.844	357.08
781.166	358.25
781.487	356.56
781.809	356.5
782.13	356.77
782.451	357.32
782.772	355.87
783.094	357.36
783.415	358.39
783.736	358.92
784.057	357.71
784.378	356.9
784.698	353.18
785.019	354.93
785.34	356.08
785.661	357.36
785.981	355.47
786.302	357.82
786.622	354.99
786.943	356.48
787.263	356.78
787.583	356.19
787.903	356.64
788.224	357.68
788.544	355.01
788.864	357.63
789.184	357.15
789.504	357.39
789.824	355.59
790.143	356.41
790.463	356.68
790.783	356.62
791.102	357.14
791.422	354.15
791.741	357.63
792.061	358.73
792.38	354.23
792.699	356.02
793.019	356.08
793.338	356.5
793.657	355.61
793.976	354.74
794.295	356.92
794.614	355.76
794.933	356.81
795.252	356.85
795.57	356.28
795.889	356.79
796.208	356.15
796.526	358.14
796.845	355.77
797.163	356.29
797.482	358.55
797.8	355.71
798.118	356.19
798.436	357.27
798.754	355.83
799.073	355.4
799.391	356.51
799.708	355.27
800.026	354.73
800.344	354.82
800.662	355.93
800.98	356.75
801.297	356.7
801.615	357.19
801.932	357.73
802.25	357.35
802.567	357.23
802.884	358.18
803.202	354.8
803.519	356.68
803.836	356.75
804.153	355.7
804.47	356.68
804.787	355.46
805.104	354.91
805.421	353.65
805.737	356.19
806.054	354.89
806.371	355.23
806.687	356.07
807.004	355.96
807.32	356.79
807.637	357.4
807.953	354.37
808.269	354.84
808.585	354.41
808.902	356.4
809.218	357.38
809.534	357.17
809.85	354.93
810.165	355.87
810.481	356.9
810.797	354.33
811.113	353.16
811.428	355.65
811.744	356
812.059	356.47
812.375	355.21
812.69	355.1
813.006	356
813.321	354.96
813.636	355.9
813.951	353.45
814.266	354.66
814.581	356.77
814.896	355.53
815.211	356.96
815.526	356.16
815.841	355.43
816.155	355.36
816.47	353.5
816.784	355.77
817.099	355
817.413	356.35
817.728	355.43
818.042	354.83
818.356	355.34
818.67	354.72
818.985	353.81
819.299	356.46
819.613	356.22
819.926	353.32
820.24	354.94
820.554	357.98
820.868	354.21
821.182	354.77
821.495	355.65
821.809	353.9
822.122	353.55
822.436	355.12
822.749	353.69
823.062	356.47
823.376	356.65
823.689	355.63
824.002	355.5
824.315	354.44
824.628	356.33
824.941	354.61
825.254	356.01
825.566	355.7
825.879	354.77
826.192	354.96
826.504	353.92
826.817	354.03
827.129	356.93
827.442	354.05
827.754	357.53
828.066	354.47
828.379	356.82
828.691	355.37
829.003	356.34
829.315	353.7
829.627	352.83
829.939	355.39
830.251	354.2
830.562	353.12
830.874	357.15
831.186	355.9
831.497	354.85
831.809	356.57
832.12	357.74
832.432	355.98
832.743	353.48
833.054	354.71
833.365	354.48
833.676	356.53
833.988	354.92
834.299	353.6
834.61	353.65
834.92	355.06
835.231	354.48
835.542	356.2
835.853	354.53
836.163	354.81
836.474	355.62
836.784	352.97
837.095	354.26
837.405	353.54
837.715	352.65
838.026	354.92
838.336	352.11
838.646	354.97
838.956	354.25
839.266	354.72
839.576	353.43
839.886	354.71
840.195	354.36
840.505	353.65
840.815	352.49
841.124	351.85
841.434	354.52
841.743	353.7
842.053	353.08
842.362	353.49
842.671	353.5
842.981	351.96
843.29	354.55
843.599	354.5
843.908	354.35
844.217	354.21
844.526	353.99
844.835	354.86
845.143	354.71
845.452	356.18
845.761	352.98
846.069	352.21
846.378	354.19
846.686	352.65
846.995	353.8
847.303	354.37
847.611	355.36
847.919	354.59
848.227	352.89
848.535	354.94
848.843	353.02
849.151	356.88
849.459	353.54
849.767	354.03
850.075	355.38
850.382	353.89
850.69	352.85
850.998	354.79
851.305	353.49
851.612	355.24
851.92	354.5
852.227	354.52
852.534	354.44
852.841	353.47
853.148	353.28
853.455	355.09
853.762	352.3
854.069	353.11
854.376	354.02
854.683	354.41
854.99	354.19
855.296	353.15
855.603	355.77
855.909	352.92
856.216	354.43
856.522	354.48
856.828	353.42
857.135	354.49
857.441	353.77
857.747	354.57
858.053	353.69
858.359	352.23
858.665	354.42
858.971	355.09
859.276	353.21
859.582	353.08
859.888	353.79
860.193	353.83
860.499	352.84
860.804	352.45
861.11	353.99
861.415	353.13
861.72	354.32
862.026	353.19
862.331	354.07
862.636	352.92
862.941	353.61
863.246	352.74
863.551	351.68
863.855	354.07
864.16	352.46
864.465	354.62
864.769	354.02
865.074	353.8
865.378	353.4
865.683	353.52
865.987	350.39
866.291	353.33
866.596	353.89
866.9	353.48
867.204	354.17
867.508	353.52
867.812	353.71
868.116	353.4
868.42	353.24
868.723	352.73
869.027	354.41
869.331	353.08
869.634	352.49
869.938	352.54
870.241	353.64
870.544	352.24
870.848	353.07
871.151	354.52
871.454	352.21
871.757	351.21
872.06	352.06
872.363	351.01
872.666	352.57
872.969	354.82
873.272	352.85
873.574	353.34
873.877	353.76
874.18	353.45
874.482	353.89
874.785	352.56
875.087	354.86
875.389	352.16
875.692	353.83
875.994	351.56
876.296	352.01
876.598	352.1
876.9	352.67
877.202	353.24
877.504	354.22
877.805	353.74
878.107	353.08
878.409	353.46
878.71	353.66
879.012	351.52
879.313	351.9
879.615	352.58
879.916	354.91
880.217	353.75
880.518	352.35
880.82	352.44
881.121	353.13
881.422	352.35
881.723	352.83
882.023	352.27
882.324	352.12
882.625	352.43
882.926	352.95
883.226	351.53
883.527	352.83
883.827	352.4
884.128	352.48
884.428	352.37
884.728	353.28
885.028	355.28
885.328	353.35
885.629	352.88
885.929	351.63
886.228	353.77
886.528	354.52
886.828	354.04
887.128	353.34
887.427	353.27
887.727	351.59
888.027	353.35
888.326	352.78
888.625	354.44
888.925	354.04
889.224	353.23
889.523	353.93
889.822	354.1
890.121	353.42
890.42	354.69
890.719	353.72
891.018	353.12
891.317	352.74
891.616	351.54
891.914	351.81
892.213	352.14
892.512	353.98
892.81	352.81
893.108	352.82
893.407	350.38
893.705	352.66
894.003	351.36
894.301	353.23
894.599	351.92
894.897	352.04
895.195	350.3
895.493	351.88
895.791	353.13
896.089	351.54
896.386	352.32
896.684	352.96
896.981	353.28
897.279	353.87
897.576	351.91
897.874	353.41
898.171	351.78
898.468	350.37
898.765	352.16
899.062	351.55
899.359	352.5
899.656	352.96
899.953	353.32
900.25	352.54
900.547	354.46
900.843	351.44
901.14	351.86
901.436	350.76
901.733	351.27
902.029	351.77
902.325	351.04
902.622	352.92
902.918	352.71
903.214	352.48
903.51	351.55
903.806	352.21
904.102	349.67
904.398	352.68
904.694	351.54
904.989	352.15
905.285	354.26
905.581	350.84
905.876	353.19
906.171	352.04
906.467	352.73
906.762	351.18
907.057	352.55
907.353	350.72
907.648	350.65
907.943	350.74
908.238	349.94
908.533	351.05
908.827	352.74
909.122	352.42
909.417	351.12
909.711	350.98
910.006	353.24
910.301	352.33
910.595	351.63
910.889	351.3
911.184	351.55
911.478	352.2
911.772	352.86
912.066	352.55
912.36	351.56
912.654	350.05
912.948	352.32
913.242	349.27
913.536	351.52
913.829	351.98
914.123	351.23
914.416	351.82
914.71	352.46
915.003	351.72
915.297	350.56
915.59	351.21
915.883	350.89
916.176	353.67
916.469	352.92
916.762	352.83
917.055	351.79
917.348	350.63
917.641	352.84
917.934	351.93
918.226	351.29
918.519	352.52
918.811	352.01
919.104	352.34
919.396	350.18
919.689	349.64
919.981	350.23
920.273	349.86
920.565	351.93
920.857	351.58
921.149	351.72
921.441	350.21
921.733	351.67
922.025	350.05
922.316	349.28
922.608	350.76
922.9	352.35
923.191	352.23
923.483	350.9
923.774	351.15
924.065	350.31
924.357	351.09
924.648	352.55
924.939	352.09
925.23	352.39
925.521	350.51
925.812	352.92
926.102	351.17
926.393	350.19
926.684	352.14
926.975	349.91
927.265	352.57
927.556	351.36
927.846	352.94
928.136	349.56
928.427	350.04
928.717	351.17
929.007	350.92
929.297	350.45
929.587	351.45
929.877	349.53
930.167	351.61
930.457	352.92
930.746	351.81
931.036	350.02
931.325	351.9
931.615	348.84
931.904	351.24
932.194	349.71
932.483	350.16
932.772	349.73
933.062	350.27
933.351	351.42
933.64	350.97
933.929	351.56
934.218	352.4
934.506	352.38
934.795	351.19
935.084	350.57
935.372	350.45
935.661	352.29
935.949	349.8
936.238	352.97
936.526	350.15
936.815	350.64
937.103	350.53
937.391	351.2
937.679	349.65
937.967	351.22
938.255	350.33
938.543	349.52
938.831	349.79
939.118	349.41
939.406	351.13
939.693	351.58
939.981	349.54
940.268	349.71
940.556	350.28
940.843	349.95
941.13	349.7
941.418	348.9
941.705	349.5
941.992	351.2
942.279	349.53
942.566	351.75
942.852	352.11
943.139	350.11
943.426	351.61
943.712	349.46
943.999	351.51
944.285	349.27
944.572	350.3
944.858	349.48
945.144	352.08
945.431	348.96
945.717	350.81
946.003	349.66
946.289	350.78
946.575	349.01
946.861	350.55
947.146	349.71
947.432	350.07
947.718	350.28
948.003	350.95
948.289	348.1
948.574	348.88
948.86	350.45
949.145	352.44
949.43	350.17
949.715	348.88
950	350.88
950.285	349.11
950.57	349.32
950.855	350.87
951.14	350.82
951.425	350.52
951.709	348.89
951.994	350.85
952.278	348.19
952.563	349.2
952.847	348.74
953.132	348.19
953.416	348.99
953.7	351.05
953.984	350.37
954.268	349.08
954.552	349.41
954.836	350.61
955.12	349.15
955.404	349.81
955.687	350.27
955.971	348.51
956.254	350.77
956.538	350.31
956.821	350.31
957.105	350.23
957.388	348.94
957.671	350.39
957.954	349.7
958.237	349.35
958.52	349.34
958.803	350.55
959.086	348.33
959.369	348.68
959.652	347.51
959.934	347.8
960.217	348.29
960.499	349.87
960.782	350.27
961.064	348.83
961.346	349.34
961.629	349.96
961.911	350.67
962.193	350.93
962.475	349.8
962.757	350.21
963.039	349.46
963.32	349.06
963.602	347.59
963.884	348.6
964.165	348.96
964.447	350.5
964.728	350.08
965.01	350.53
965.291	351.1
965.572	349.96
965.853	347.99
966.134	349.63
966.415	349.45
966.696	352.41
966.977	349.21
967.258	350.41
967.539	349.33
967.819	349.67
968.1	349.51
968.38	350.23
968.661	351.08
968.941	350.27
969.222	349.46
969.502	349.35
969.782	349.36
970.062	348.99
970.342	348.38
970.622	348.48
970.902	349.98
971.182	352.19
971.462	350.07
971.741	349.07
972.021	348.31
972.3	349.71
972.58	350.13
972.859	349.03
973.138	348.2
973.418	347.58
973.697	350.13
973.976	349.44
974.255	350.81
974.534	349.68
974.813	349.27
975.092	348.41
975.37	347.94
975.649	349.88
975.928	348.89
976.206	350.64
976.485	350.95
976.763	350.62
977.041	348.63
977.32	348.6
977.598	348.83
977.876	348.69
978.154	350.94
978.432	348.81
978.71	350.12
978.988	350.11
979.265	347.92
979.543	348.95
979.821	351.97
980.098	350.04
980.376	347.39
980.653	349.91
980.93	350.84
981.208	347.63
981.485	349.81
981.762	350.79
982.039	350.5
982.316	347.38
982.593	348.79
982.87	350.73
983.146	349.39
983.423	350
983.7	348.98
983.976	348.42
984.253	349.6
984.529	350.09
984.805	348.24
985.082	349.72
985.358	350.27
985.634	348.59
985.91	348.65
986.186	349.74
986.462	349.08
986.738	350.13
987.013	351.25
987.289	350.5
987.565	347.2
987.84	349.08
988.116	347.53
988.391	348.13
988.666	348.66
988.942	347.13
989.217	349.48
989.492	348.18
989.767	347.08
990.042	347.49
990.317	348.69
990.592	349.04
990.866	349.24
991.141	349.3
991.416	349.26
991.69	348.57
991.964	347.25
992.239	347.54
992.513	348.22
992.787	349.2
993.062	350.19
993.336	347.87
993.61	349.45
993.884	348.2
994.158	349.67
994.431	349.35
994.705	347.9
994.979	348.24
995.252	348.44
995.526	349.1
995.799	348.03
996.073	348.18
996.346	348.8
996.619	348.71
996.892	348.24
997.165	348.47
997.438	347.17
997.711	348.2
997.984	346.63
998.257	348.59
998.53	347.33
998.802	348.45
999.075	349.79
999.347	347.71
999.62	349.35
999.892	348.13
1000.165	348.04
1000.437	347.65
1000.709	348.08
1000.981	348.63
1001.253	348.51
1001.525	348.49
1001.797	349.99
1002.068	348.15
1002.34	348.64
1002.612	347.8
1002.883	348.78
1003.155	349.06
1003.426	349.35
1003.698	347.95
1003.969	347.67
1004.24	347.89
1004.511	348.33
1004.782	348.13
1005.053	347.54
1005.324	348.11
1005.595	349.06
1005.866	349.62
1006.136	348.24
1006.407	346.68
1006.678	348
1006.948	348.24
1007.218	347.55
1007.489	346.44
1007.759	346.81
1008.029	347.26
1008.299	347.73
1008.569	348.03
1008.839	346.93
1009.109	347.4
1009.379	347.87
1009.649	348.25
1009.918	347.97
1010.188	346.14
1010.458	347.7
1010.727	348.06
1010.996	348.05
1011.266	347.7
1011.535	346.84
1011.804	347.58
1012.073	347.61
1012.342	348.26
1012.611	348.78
1012.88	348.83
1013.149	348.31
1013.417	349.26
1013.686	347.78
1013.955	347.53
1014.223	346.15
1014.492	346.99
1014.76	348.17
1015.028	350.16
1015.296	347.58
1015.565	347.19
1015.833	348.72
1016.101	348.26
1016.368	349.19
1016.636	348.04
1016.904	347.77
1017.172	347.97
1017.439	348.19
1017.707	348.33
1017.974	348.63
1018.242	347.52
1018.509	346.56
1018.776	348.1
1019.044	350.1
1019.311	348.64
1019.578	350.29
1019.845	348.85
1020.112	347.82
1020.378	347.82
1020.645	347.82
