Data from 190724_Ar_25K_film_FLMS138901_13-09-30-240.txt Node
Date: Wed Jul 24 13:09:30 EDT 2019
User: pSAM
Spectrometer: FLMS13890
Trigger mode: 0
Integration Time (sec): 5.000000E-3
Scans to average: 1000
Electric dark correction enabled: true
Nonlinearity correction enabled: false
Boxcar width: 0
XAxis mode: Wavelengths
Number of Pixels in Spectrum: 2048
>>>>>Begin Spectral Data<<<<<
342.097	-63.29
342.483	-63.29
342.868	-63.29
343.254	-104.5
343.639	-104.13
344.025	-102.26
344.41	-100.9
344.796	-91.6
345.181	-80.39
345.567	-67.52
345.952	-52.07
346.337	-36.03
346.722	-17.39
347.107	1.78
347.493	19.14
347.878	40.47
348.263	58.42
348.648	78.83
349.033	97.83
349.418	117.15
349.802	134.55
350.187	149.57
350.572	172.08
350.957	192.81
351.342	217.12
351.726	231.67
352.111	244.78
352.495	258.9
352.88	271.19
353.264	282.08
353.649	291.46
354.033	302.01
354.418	309.19
354.802	318.06
355.186	324.82
355.57	329.6
355.955	335.03
356.339	339.72
356.723	343.99
357.107	344.53
357.491	361.08
357.875	349.97
358.259	349.85
358.643	352.2
359.026	351.34
359.41	351.33
359.794	350.86
360.178	351.2
360.561	348.63
360.945	347.61
361.329	345.54
361.712	343.62
362.096	344.49
362.479	342.25
362.862	341.25
363.246	338.07
363.629	337
364.012	336.32
364.396	335.6
364.779	334.51
365.162	332.04
365.545	330.31
365.928	329.35
366.311	328.36
366.694	329.68
367.077	325.95
367.46	328.23
367.843	325.05
368.226	325.53
368.608	324.21
368.991	326.11
369.374	323.88
369.756	324.05
370.139	324.7
370.521	325.61
370.904	322.31
371.286	325.33
371.669	323.62
372.051	322.08
372.433	324.48
372.816	326.03
373.198	325.77
373.58	325.38
373.962	327.2
374.344	325.83
374.726	328.53
375.108	328.01
375.49	328.2
375.872	332.02
376.254	329.71
376.636	331.52
377.018	330.32
377.399	330.61
377.781	332.07
378.163	332.93
378.544	334.94
378.926	332.77
379.307	334.47
379.689	334.7
380.07	339.24
380.452	336.42
380.833	336.91
381.214	337.75
381.596	338.18
381.977	340.09
382.358	339.88
382.739	341.6
383.12	338.55
383.501	342.08
383.882	339.41
384.263	341.04
384.644	342.67
385.025	345.3
385.406	341.87
385.787	342.91
386.167	345.88
386.548	346.72
386.929	345.8
387.309	346.24
387.69	346.48
388.07	346.91
388.451	347.4
388.831	350.89
389.211	348.21
389.592	349.32
389.972	347.7
390.352	349.78
390.733	351.58
391.113	349.72
391.493	349.45
391.873	349.3
392.253	350.86
392.633	353.94
393.013	352.37
393.393	353.15
393.772	355.27
394.152	355.58
394.532	355.35
394.912	355.72
395.291	355.46
395.671	355.61
396.05	359.45
396.43	357.05
396.809	356.63
397.189	355.57
397.568	358.9
397.948	360.54
398.327	359.64
398.706	359.39
399.085	359.83
399.465	360.45
399.844	360.85
400.223	360.39
400.602	359.79
400.981	361.9
401.36	363.93
401.739	363.57
402.117	363.19
402.496	362.2
402.875	364.37
403.254	364.37
403.632	364.86
404.011	365.74
404.39	367.85
404.768	366.83
405.147	367.59
405.525	366.07
405.903	369.34
406.282	369.11
406.66	369.34
407.038	368.09
407.417	368.41
407.795	369.95
408.173	367.67
408.551	370.35
408.929	370.52
409.307	371.67
409.685	371.28
410.063	370.85
410.441	371.86
410.818	373.07
411.196	374.21
411.574	376.47
411.952	375.4
412.329	374.82
412.707	376.35
413.084	376.83
413.462	376.93
413.839	378.54
414.217	376.7
414.594	377.4
414.971	380.49
415.349	380.49
415.726	378.58
416.103	379.21
416.48	379.69
416.857	380.99
417.234	381.12
417.611	382.58
417.988	380.03
418.365	382.15
418.742	380.41
419.119	381.46
419.495	382.79
419.872	385.12
420.249	391.04
420.625	385.51
421.002	386.32
421.379	387.79
421.755	389.84
422.131	389.94
422.508	387.36
422.884	390.87
423.26	387.73
423.637	391.85
424.013	389.52
424.389	388.94
424.765	392.12
425.141	390.47
425.517	392.26
425.893	391.48
426.269	389.29
426.645	391.55
427.021	394.63
427.397	393.74
427.772	394.8
428.148	393.57
428.524	395.42
428.899	394.81
429.275	395.07
429.651	396.49
430.026	397.94
430.401	400.65
430.777	401.83
431.152	398.47
431.527	396.85
431.903	397.08
432.278	397.66
432.653	400.29
433.028	400.58
433.403	402.83
433.778	403.4
434.153	405.38
434.528	404.11
434.903	404.98
435.278	411.29
435.653	413.69
436.027	413.9
436.402	411.71
436.777	411.05
437.151	409.96
437.526	408.45
437.9	410.55
438.275	411.54
438.649	410
439.023	411.03
439.398	412.87
439.772	410.14
440.146	410.57
440.52	412.77
440.895	415.21
441.269	418.68
441.643	418.56
442.017	418.74
442.391	417.32
442.765	420.71
443.138	420.58
443.512	421.27
443.886	422.5
444.26	419.74
444.633	420.92
445.007	422.95
445.38	422.9
445.754	422.49
446.127	424.74
446.501	420.74
446.874	423.33
447.248	423.14
447.621	424.73
447.994	423.43
448.367	425.74
448.741	426.31
449.114	423.66
449.487	426.44
449.86	427.08
450.233	427.19
450.606	427.64
450.978	427.99
451.351	431.22
451.724	429.74
452.097	429.43
452.469	430.4
452.842	429.99
453.215	428.69
453.587	429.29
453.96	430.36
454.332	429.55
454.704	435.09
455.077	432.14
455.449	433.29
455.821	431.33
456.194	434.5
456.566	435.57
456.938	437.12
457.31	437.04
457.682	440.9
458.054	441.94
458.426	442.89
458.798	442.55
459.17	446.21
459.541	442.87
459.913	442.51
460.285	443.18
460.656	444.71
461.028	444.5
461.399	445.44
461.771	444.82
462.142	448.77
462.514	448.39
462.885	450.58
463.256	455.39
463.628	454.47
463.999	457.5
464.37	458.77
464.741	459.14
465.112	460.09
465.483	459.48
465.854	464.25
466.225	459.04
466.596	459.79
466.967	462.56
467.338	463.09
467.708	463.89
468.079	464.43
468.45	466.43
468.82	465.8
469.191	467.16
469.561	467.38
469.932	468.83
470.302	468.77
470.673	470.45
471.043	473.31
471.413	474.13
471.783	476.73
472.154	480.66
472.524	480.71
472.894	484.42
473.264	489.04
473.634	489.54
474.004	488.8
474.374	490.79
474.743	492.04
475.113	496.41
475.483	497.94
475.853	500.29
476.222	500.31
476.592	505.29
476.961	504.92
477.331	509.04
477.7	508.52
478.07	513.67
478.439	513.57
478.808	516.84
479.178	518.03
479.547	524.4
479.916	525.71
480.285	528.15
480.654	531.84
481.023	531.83
481.392	536.78
481.761	536.5
482.13	538.35
482.499	544.66
482.867	545.27
483.236	552.94
483.605	557.12
483.973	560.67
484.342	566.83
484.71	571.56
485.079	589.12
485.447	623.96
485.816	652.22
486.184	658.3
486.552	632.74
486.921	608.83
487.289	597
487.657	595.45
488.025	593.72
488.393	595.01
488.761	597.35
489.129	602.99
489.497	603.47
489.865	612.89
490.233	614.01
490.6	618.11
490.968	617.96
491.336	620.41
491.703	620.9
492.071	623.97
492.438	627.16
492.806	632.81
493.173	638.21
493.541	639.69
493.908	640.13
494.275	640.13
494.642	643.48
495.01	640.08
495.377	645.13
495.744	647.33
496.111	656.37
496.478	661
496.845	661.57
497.211	661.81
497.578	662.82
497.945	667.43
498.312	673.18
498.678	678.87
499.045	682.55
499.412	682.91
499.778	682.85
500.145	684.48
500.511	683.41
500.878	691.12
501.244	697.72
501.61	700.36
501.976	702.54
502.343	701.02
502.709	704.71
503.075	707.78
503.441	708.37
503.807	710.62
504.173	709.12
504.539	712.14
504.905	718.31
505.27	717.06
505.636	725.1
506.002	725.6
506.367	728.13
506.733	729.73
507.099	730.8
507.464	733.43
507.829	737.57
508.195	742.77
508.56	742.7
508.926	745.76
509.291	742.23
509.656	747.66
510.021	753.1
510.386	753.84
510.751	756.69
511.116	760.01
511.481	764.27
511.846	770.1
512.211	771.13
512.576	774.5
512.941	774.83
513.305	778.28
513.67	779.84
514.035	781.71
514.399	784.52
514.764	787.66
515.128	792.12
515.493	791.97
515.857	796.34
516.221	798.26
516.585	801.11
516.95	805.16
517.314	806.81
517.678	811.55
518.042	811.86
518.406	817.43
518.77	818.93
519.134	823.58
519.498	826.9
519.862	828.74
520.225	827.15
520.589	833.55
520.953	837.99
521.316	842.2
521.68	845.38
522.043	846.73
522.407	848.33
522.77	851.49
523.134	858.85
523.497	855.47
523.86	861.54
524.223	870.9
524.587	871.34
524.95	872.11
525.313	882.41
525.676	881.91
526.039	885.16
526.402	887.9
526.765	893.47
527.127	898.79
527.49	904.19
527.853	904.39
528.215	909.5
528.578	918.9
528.941	918.77
529.303	923.69
529.666	924.58
530.028	929.01
530.39	938.04
530.753	937.96
531.115	943.58
531.477	949.67
531.839	951.91
532.201	956.96
532.564	960.57
532.926	969.27
533.287	982.4
533.649	983.98
534.011	989.64
534.373	994.52
534.735	1000.84
535.097	1001.84
535.458	1008.27
535.82	1013.21
536.181	1016.09
536.543	1018.09
536.904	1016.77
537.266	1028.08
537.627	1038.19
537.988	1044.17
538.35	1051.43
538.711	1059.98
539.072	1065.91
539.433	1070.41
539.794	1075.83
540.155	1083.05
540.516	1088.65
540.877	1096.06
541.238	1104.33
541.599	1118.76
541.959	1131.13
542.32	1146
542.681	1151.01
543.041	1157.64
543.402	1166.49
543.762	1170.61
544.123	1173.47
544.483	1177.54
544.844	1182.76
545.204	1183.7
545.564	1195.47
545.924	1198.1
546.284	1205.09
546.644	1202.67
547.004	1194.63
547.364	1199.4
547.724	1206.17
548.084	1205.32
548.444	1212.83
548.804	1213.49
549.164	1217.15
549.523	1219.85
549.883	1224.01
550.242	1227.68
550.602	1236.41
550.961	1238.48
551.321	1236.84
551.68	1244.91
552.04	1250.43
552.399	1258
552.758	1265.21
553.117	1261.73
553.476	1275.1
553.835	1280.15
554.194	1280.79
554.553	1285
554.912	1283.55
555.271	1293.95
555.63	1299.75
555.989	1309.41
556.347	1310.8
556.706	1314.02
557.065	1316.94
557.423	1328.54
557.782	1331.59
558.14	1331.79
558.499	1336.29
558.857	1342.2
559.215	1347.21
559.573	1361.71
559.932	1365.52
560.29	1372.11
560.648	1383.29
561.006	1387.94
561.364	1387.54
561.722	1390.59
562.08	1404.05
562.438	1399.63
562.795	1411.97
563.153	1416.04
563.511	1422.13
563.868	1431.19
564.226	1437.43
564.583	1443.78
564.941	1441.81
565.298	1457.79
565.656	1458.64
566.013	1464.82
566.37	1471.36
566.727	1486.72
567.085	1502.41
567.442	1522.76
567.799	1534.52
568.156	1540.28
568.513	1550.09
568.87	1572.23
569.226	1606.11
569.583	1629.26
569.94	1633.67
570.297	1638.06
570.653	1642.07
571.01	1657.2
571.366	1694.67
571.723	1701.75
572.079	1696.78
572.436	1692.46
572.792	1711.48
573.148	1741.57
573.505	1768.37
573.861	1796.25
574.217	1802.27
574.573	1807.55
574.929	1801.82
575.285	1811.68
575.641	1826.35
575.997	1849.17
576.352	1868.49
576.708	1876.24
577.064	1904.99
577.42	1946.61
577.775	1974.24
578.131	1967.62
578.486	1946.2
578.842	1922.43
579.197	1940.52
579.552	1968.09
579.908	2009.95
580.263	2012.15
580.618	2004.22
580.973	2045.55
581.328	2123.86
581.683	2209.19
582.038	2201.03
582.393	2123.79
582.748	2053.09
583.103	2003.62
583.458	1984.61
583.812	2007.54
584.167	2048.11
584.522	2082.68
584.876	2095.56
585.231	2112.03
585.585	2109.46
585.939	2083.36
586.294	2065.51
586.648	2066.51
587.002	2076.27
587.356	2115.81
587.711	2154.31
588.065	2171.67
588.419	2168.13
588.773	2151.55
589.127	2103.71
589.48	2088.54
589.834	2064.09
590.188	2073.91
590.542	2078.67
590.895	2077.84
591.249	2091.04
591.603	2090.61
591.956	2096.48
592.309	2136.53
592.663	2170.07
593.016	2215.02
593.369	2223.64
593.723	2207.85
594.076	2204.09
594.429	2221.37
594.782	2249.75
595.135	2274.89
595.488	2263.96
595.841	2247.54
596.194	2231.23
596.547	2209.24
596.899	2214.2
597.252	2226.05
597.605	2242.72
597.957	2244.48
598.31	2255.44
598.662	2285.07
599.015	2299.49
599.367	2298.69
599.719	2292.65
600.072	2303.72
600.424	2320.33
600.776	2351.78
601.128	2356.49
601.48	2365.27
601.832	2371.33
602.184	2377.16
602.536	2380.34
602.888	2422.79
603.24	2445.56
603.592	2456.19
603.943	2443.69
604.295	2413.82
604.646	2394.9
604.998	2409.63
605.349	2429.09
605.701	2440.91
606.052	2445
606.404	2444.43
606.755	2438.93
607.106	2457.58
607.457	2447.72
607.808	2454.26
608.159	2449.1
608.51	2461.53
608.861	2475.64
609.212	2471.09
609.563	2505.92
609.914	2529.21
610.265	2544.22
610.615	2574.92
610.966	2591.61
611.316	2619.01
611.667	2630.63
612.017	2640.64
612.368	2602.78
612.718	2620.68
613.068	2621.8
613.419	2629.04
613.769	2637.84
614.119	2644.21
614.469	2651.2
614.819	2625.35
615.169	2633.75
615.519	2646.03
615.869	2653.26
616.219	2642.18
616.568	2620.73
616.918	2617.27
617.268	2640.11
617.617	2658.68
617.967	2668.47
618.316	2659.11
618.666	2655.98
619.015	2652.88
619.364	2671.81
619.714	2710.31
620.063	2724.41
620.412	2720.37
620.761	2715.03
621.11	2721.45
621.459	2713.79
621.808	2729.16
622.157	2755.65
622.506	2761.77
622.855	2782.22
623.203	2808.7
623.552	2816.52
623.901	2819.17
624.249	2804.96
624.598	2812.64
624.946	2820.25
625.295	2810.4
625.643	2821.55
625.991	2841.15
626.34	2831.62
626.688	2830.19
627.036	2857.3
627.384	2863.09
627.732	2880.3
628.08	2869.76
628.428	2871.19
628.776	2885.1
629.124	2894.15
629.471	2909.31
629.819	2922.33
630.167	2925.61
630.514	2943.66
630.862	2923.86
631.209	2930.66
631.557	2942.09
631.904	2953.45
632.251	2965.06
632.599	2949.72
632.946	2963.07
633.293	2981.7
633.64	2982.07
633.987	2997.65
634.334	3001.33
634.681	2998.8
635.028	3019.48
635.375	3018.83
635.722	3035.12
636.068	3050.61
636.415	3060.97
636.762	3069.63
637.108	3087.14
637.455	3085.72
637.801	3087.12
638.147	3095.17
638.494	3087.62
638.84	3134.74
639.186	3120.23
639.532	3120.1
639.878	3133.16
640.225	3157.66
640.571	3180.69
640.916	3189.3
641.262	3193.68
641.608	3193.04
641.954	3209.05
642.3	3229.66
642.645	3225.01
642.991	3231.24
643.337	3256.03
643.682	3272.74
644.028	3281.08
644.373	3272.95
644.718	3285.9
645.064	3283.83
645.409	3306.34
645.754	3314.53
646.099	3312.59
646.444	3320.76
646.789	3342.94
647.134	3346.89
647.479	3363.07
647.824	3376.72
648.169	3387.68
648.513	3410.96
648.858	3417.36
649.203	3438.62
649.547	3429.1
649.892	3439.31
650.236	3439.28
650.581	3438.08
650.925	3446.22
651.269	3443.17
651.613	3471.69
651.958	3479.36
652.302	3496.18
652.646	3497.79
652.99	3487.23
653.334	3501.76
653.678	3507.36
654.022	3530.38
654.365	3530.32
654.709	3537.88
655.053	3562.85
655.396	4019.92
655.74	5905.44
656.083	7564.57
656.427	8444.21
656.77	7380.73
657.114	5461.69
657.457	4380.36
657.8	3886.23
658.143	3711.93
658.486	3671.06
658.83	3668.3
659.173	3651.99
659.516	3661.03
659.858	3648.81
660.201	3653.27
660.544	3656.38
660.887	3668.68
661.229	3666.9
661.572	3656.01
661.915	3663.66
662.257	3658.73
662.6	3708.68
662.942	3716.18
663.284	3695.82
663.627	3712.08
663.969	3722.25
664.311	3722.03
664.653	3722.84
664.995	3732.85
665.337	3749.54
665.679	3746.45
666.021	3758.8
666.363	3729.57
666.705	3754.74
667.046	3777.17
667.388	3773.79
667.73	3793.7
668.071	3800.1
668.413	3793.49
668.754	3808.5
669.096	3796.63
669.437	3830.58
669.778	3825.93
670.119	3834.07
670.461	3837.79
670.802	3826.2
671.143	3827.04
671.484	3862.36
671.825	3855.69
672.165	3882.61
672.506	3891.73
672.847	3896.94
673.188	3916.49
673.528	3893.74
673.869	3884.09
674.21	3887.35
674.55	3905.51
674.89	3911.88
675.231	3935.98
675.571	3930.52
675.911	3919.47
676.252	3926.02
676.592	3958.48
676.932	3971.63
677.272	3954.11
677.612	3976.33
677.952	3995.83
678.292	4000.25
678.631	3972.53
678.971	3965.59
679.311	3992.37
679.651	4019.23
679.99	4046.85
680.33	4055.17
680.669	4029.39
681.009	4021.19
681.348	4038.96
681.687	4052.39
682.026	4064.47
682.366	4044.94
682.705	4068.35
683.044	4088.46
683.383	4101.92
683.722	4103.86
684.061	4096.28
684.4	4117.42
684.738	4133
685.077	4156.1
685.416	4142.8
685.754	4150.59
686.093	4154.83
686.431	4182.98
686.77	4156.52
687.108	4171.11
687.447	4146.04
687.785	4154.37
688.123	4156.16
688.461	4163.41
688.799	4151.79
689.137	4169.13
689.475	4184.41
689.813	4179.21
690.151	4217.67
690.489	4220.58
690.827	4231.21
691.164	4236.11
691.502	4248.68
691.84	4227.51
692.177	4226.24
692.515	4231.3
692.852	4220.97
693.189	4252.23
693.527	4261.26
693.864	4251.82
694.201	4243.8
694.538	4223.68
694.875	4220.11
695.212	4225.6
695.549	4253.54
695.886	4261.69
696.223	4250.88
696.56	4277.31
696.897	4274.58
697.233	4283.08
697.57	4300.75
697.906	4336.02
698.243	4332.13
698.579	4327.81
698.916	4335.89
699.252	4313.98
699.588	4307.21
699.924	4343.35
700.261	4328.85
700.597	4319.59
700.933	4315.06
701.269	4316.31
701.605	4335.15
701.941	4319.11
702.276	4343.86
702.612	4334.09
702.948	4363.47
703.283	4385.85
703.619	4380.65
703.954	4406.21
704.29	4407.22
704.625	4402.55
704.961	4377.66
705.296	4396.48
705.631	4416.98
705.966	4398.98
706.301	4429.7
706.637	4439.95
706.972	4476.44
707.306	4496.23
707.641	4497.03
707.976	4473.63
708.311	4477.08
708.646	4487.51
708.98	4483.19
709.315	4500.88
709.649	4496.38
709.984	4501.79
710.318	4473.61
710.653	4500.94
710.987	4499.67
711.321	4495.89
711.655	4454.52
711.989	4480.28
712.324	4465.85
712.658	4465.44
712.992	4481.37
713.325	4483.19
713.659	4492.02
713.993	4468.61
714.327	4468.04
714.66	4486.63
714.994	4505.34
715.328	4510.74
715.661	4543.65
715.994	4597.49
716.328	4582.4
716.661	4571.23
716.994	4561.24
717.328	4557.77
717.661	4541.87
717.994	4541.64
718.327	4542.22
718.66	4545.42
718.993	4541.43
719.325	4563.25
719.658	4578.28
719.991	4580.39
720.324	4572.85
720.656	4512.53
720.989	4498.65
721.321	4508.46
721.654	4487.15
721.986	4479.63
722.318	4493.05
722.651	4506.28
722.983	4519.68
723.315	4542.98
723.647	4534.18
723.979	4529.52
724.311	4547.32
724.643	4568.44
724.975	4567.45
725.307	4557.63
725.638	4581.44
725.97	4557.47
726.302	4589.36
726.633	4559.94
726.965	4582.47
727.296	4570.01
727.628	4581.35
727.959	4568.55
728.29	4593.1
728.621	4580.91
728.952	4631.67
729.284	4617.7
729.615	4608.54
729.945	4586.68
730.276	4587.06
730.607	4612.24
730.938	4622.39
731.269	4631.83
731.599	4639.16
731.93	4659.21
732.261	4606.66
732.591	4618.7
732.922	4613.48
733.252	4569.69
733.582	4553.38
733.912	4593.73
734.243	4572.12
734.573	4579.82
734.903	4610.51
735.233	4566.16
735.563	4586.03
735.893	4612.5
736.223	4577.58
736.552	4578.14
736.882	4538.74
737.212	4507.29
737.541	4519.25
737.871	4526.57
738.2	4508.98
738.53	4487.22
738.859	4496.68
739.188	4497.1
739.518	4490.45
739.847	4510.87
740.176	4487.27
740.505	4484.31
740.834	4481.86
741.163	4457.79
741.492	4414.78
741.821	4425.47
742.15	4421.17
742.478	4443.01
742.807	4423.37
743.136	4413.6
743.464	4399.6
743.793	4385.99
744.121	4391.34
744.449	4364.46
744.778	4369.31
745.106	4402.68
745.434	4400.94
745.762	4373.97
746.09	4372.07
746.418	4364.53
746.746	4354.2
747.074	4345.8
747.402	4355.87
747.73	4370.96
748.057	4375.39
748.385	4341.41
748.712	4292.83
749.04	4265.02
749.367	4299.07
749.695	4293.6
750.022	4302.14
750.349	4295.25
750.677	4296.66
751.004	4288.37
751.331	4293.15
751.658	4275.3
751.985	4244.13
752.312	4206.83
752.639	4195.72
752.966	4231.02
753.292	4185.69
753.619	4215.53
753.946	4221.52
754.272	4200.47
754.599	4202.29
754.925	4190.95
755.251	4187.78
755.578	4198.36
755.904	4185.83
756.23	4174.85
756.556	4204.75
756.882	4257.73
757.208	4228.63
757.534	4233.86
757.86	4260.78
758.186	4264.89
758.512	4254.4
758.838	4239.64
759.163	4190.95
759.489	4185.76
759.814	4166.39
760.14	4169.22
760.465	4161.8
760.791	4080.09
761.116	4078.3
761.441	4097.11
761.766	4132.34
762.092	4100.15
762.417	4036.57
762.742	4033.13
763.066	4028.84
763.391	4051.94
763.716	4085.53
764.041	4074.6
764.366	4049.16
764.69	4044.53
765.015	4075.12
765.339	4108.42
765.664	4099.54
765.988	4034.41
766.312	3987.07
766.637	3956.87
766.961	3956.53
767.285	3959.57
767.609	3940.79
767.933	3901.49
768.257	3924.67
768.581	3924.36
768.905	3960.9
769.229	3970.75
769.552	3968.03
769.876	3945.59
770.2	3928.76
770.523	3910.93
770.847	3883.29
771.17	3881.48
771.493	3888.27
771.817	3890.5
772.14	3844.09
772.463	3806
772.786	3812.04
773.109	3799.82
773.432	3803.76
773.755	3792.28
774.078	3782.69
774.401	3786.93
774.724	3783.98
775.046	3787.39
775.369	3763.39
775.692	3733.31
776.014	3716.98
776.336	3698.03
776.659	3719.78
776.981	3712.16
777.303	3703.11
777.626	3681.24
777.948	3691.56
778.27	3693.06
778.592	3704.33
778.914	3718.65
779.236	3696.27
779.557	3680.66
779.879	3670.6
780.201	3683.72
780.523	3708.33
780.844	3690.23
781.166	3697.84
781.487	3703.64
781.809	3719.44
782.13	3729.41
782.451	3711.06
782.772	3719.25
783.094	3707.85
783.415	3748.2
783.736	3727.9
784.057	3759.15
784.378	3799.53
784.698	3786.36
785.019	3787.06
785.34	3742.47
785.661	3798
785.981	3805.95
786.302	3782.41
786.622	3805.65
786.943	3853.01
787.263	3820.08
787.583	3818.76
787.903	3830.06
788.224	3803.62
788.544	3802.95
788.864	3804.89
789.184	3863.34
789.504	3871.01
789.824	3894.08
790.143	3909.84
790.463	3903.25
790.783	3874.89
791.102	3877.96
791.422	3880.28
791.741	3837.45
792.061	3840.57
792.38	3842.53
792.699	3848.73
793.019	3846.14
793.338	3848.1
793.657	3840.77
793.976	3880.06
794.295	3885.54
794.614	3910.86
794.933	3923.63
795.252	3922.06
795.57	3911.8
795.889	3896.97
796.208	3878.61
796.526	3841.63
796.845	3842.58
797.163	3814.3
797.482	3793.25
797.8	3799.31
798.118	3808.14
798.436	3824.03
798.754	3807.31
799.073	3791.64
799.391	3802.19
799.708	3810.38
800.026	3775.72
800.344	3771.46
800.662	3775.18
800.98	3744.35
801.297	3744.96
801.615	3763.48
801.932	3765.61
802.25	3762.84
802.567	3724.56
802.884	3710.72
803.202	3713.38
803.519	3737.66
803.836	3757.71
804.153	3736.17
804.47	3703.69
804.787	3651.15
805.104	3618.31
805.421	3659.8
805.737	3655.22
806.054	3645.7
806.371	3660.35
806.687	3660.81
807.004	3638.83
807.32	3635.54
807.637	3619.41
807.953	3592.1
808.269	3584.11
808.585	3586.6
808.902	3553.07
809.218	3568.03
809.534	3582.93
809.85	3568.07
810.165	3542.1
810.481	3550.51
810.797	3541.88
811.113	3547.58
811.428	3567.41
811.744	3592.3
812.059	3594.27
812.375	3590.7
812.69	3564.79
813.006	3524.59
813.321	3501.45
813.636	3516.71
813.951	3529.6
814.266	3523.67
814.581	3498.14
814.896	3490.27
815.211	3453.15
815.526	3439.08
815.841	3440.3
816.155	3457.87
816.47	3430.92
816.784	3434.79
817.099	3390.28
817.413	3360.6
817.728	3375.67
818.042	3381.41
818.356	3399.26
818.67	3401.65
818.985	3374.33
819.299	3337.77
819.613	3347.12
819.926	3339.28
820.24	3341.28
820.554	3353
820.868	3364.25
821.182	3322.69
821.495	3318.94
821.809	3266.48
822.122	3271.2
822.436	3288.17
822.749	3288.82
823.062	3265.43
823.376	3242.47
823.689	3219.35
824.002	3234.44
824.315	3226.02
824.628	3232.37
824.941	3235.6
825.254	3238.55
825.566	3193.8
825.879	3179.3
826.192	3170.26
826.504	3153.65
826.817	3182.09
827.129	3209.08
827.442	3188.25
827.754	3153.34
828.066	3119.49
828.379	3101.6
828.691	3102.65
829.003	3112.07
829.315	3145.59
829.627	3146.39
829.939	3139.72
830.251	3132.87
830.562	3103.57
830.874	3117.69
831.186	3091.16
831.497	3108.23
831.809	3099.51
832.12	3058.4
832.432	3019.55
832.743	3007.62
833.054	3004.54
833.365	3012.34
833.676	3029.96
833.988	3026.34
834.299	3010.99
834.61	3000.58
834.92	3005.23
835.231	2993.49
835.542	3006.95
835.853	2989.62
836.163	2982.02
836.474	2952.88
836.784	2929.56
837.095	2904.05
837.405	2885.82
837.715	2899.69
838.026	2919.46
838.336	2934.76
838.646	2908.71
838.956	2878.07
839.266	2879.2
839.576	2854.84
839.886	2861.52
840.195	2879.48
840.505	2850.98
840.815	2829.28
841.124	2811.71
841.434	2779.82
841.743	2766.32
842.053	2755.85
842.362	2741.24
842.671	2733.25
842.981	2738.73
843.29	2718.18
843.599	2717.59
843.908	2712.76
844.217	2710.66
844.526	2730.35
844.835	2724.72
845.143	2718.63
845.452	2701.63
845.761	2709.97
846.069	2690.21
846.378	2687.57
846.686	2654.41
846.995	2652.83
847.303	2645.6
847.611	2637.2
847.919	2606.51
848.227	2590.18
848.535	2580.11
848.843	2585.61
849.151	2577.87
849.459	2591.99
849.767	2583.27
850.075	2581.25
850.382	2577.51
850.69	2565.6
850.998	2553.55
851.305	2544.18
851.612	2553.19
851.92	2562.96
852.227	2557.08
852.534	2541.69
852.841	2520.86
853.148	2512.18
853.455	2529.76
853.762	2511.38
854.069	2517.15
854.376	2500.92
854.683	2469.49
854.99	2463.2
855.296	2448.68
855.603	2419.72
855.909	2416.69
856.216	2416.86
856.522	2426.01
856.828	2405.22
857.135	2391.4
857.441	2366.92
857.747	2336
858.053	2343.95
858.359	2312.61
858.665	2313.8
858.971	2314.5
859.276	2325.34
859.582	2307.14
859.888	2313.11
860.193	2310.87
860.499	2308.88
860.804	2303.53
861.11	2277.15
861.415	2262.42
861.72	2243.32
862.026	2224.79
862.331	2231.42
862.636	2203.76
862.941	2199.42
863.246	2186.97
863.551	2201.55
863.855	2212.51
864.16	2203.17
864.465	2177.85
864.769	2172.41
865.074	2172.42
865.378	2171.16
865.683	2157.66
865.987	2162.59
866.291	2151.15
866.596	2161.91
866.9	2138.3
867.204	2116.71
867.508	2095.79
867.812	2092.35
868.116	2096.67
868.42	2093.55
868.723	2083.13
869.027	2074.36
869.331	2054.39
869.634	2041.8
869.938	2036.89
870.241	2026.47
870.544	2015.7
870.848	2031.37
871.151	2027.52
871.454	2012.77
871.757	2000.64
872.06	1988.25
872.363	1969.56
872.666	1971.39
872.969	1975.47
873.272	1971.32
873.574	1960.67
873.877	1954.74
874.18	1931.56
874.482	1921.12
874.785	1924.83
875.087	1923.18
875.389	1928.77
875.692	1919.83
875.994	1915.08
876.296	1902.02
876.598	1891.43
876.9	1872.22
877.202	1868.83
877.504	1873.4
877.805	1879.24
878.107	1883.05
878.409	1866.95
878.71	1877.78
879.012	1871.07
879.313	1838.95
879.615	1826.18
879.916	1804.25
880.217	1794.54
880.518	1802.68
880.82	1813.38
881.121	1798.66
881.422	1791.25
881.723	1782.67
882.023	1763.39
882.324	1745.23
882.625	1724.95
882.926	1718.19
883.226	1739.94
883.527	1732.7
883.827	1728.05
884.128	1712.64
884.428	1703.28
884.728	1682.68
885.028	1678.05
885.328	1678.93
885.629	1668.79
885.929	1668.5
886.228	1658.38
886.528	1638.12
886.828	1625.3
887.128	1611.5
887.427	1590.76
887.727	1583.55
888.027	1591.94
888.326	1601.41
888.625	1609.33
888.925	1590.97
889.224	1590.36
889.523	1570.53
889.822	1551.87
890.121	1532.45
890.42	1521.6
890.719	1527.1
891.018	1523.14
891.317	1543.51
891.616	1550.42
891.914	1537.56
892.213	1523.37
892.512	1504.7
892.81	1498.66
893.108	1501.08
893.407	1513.83
893.705	1516.69
894.003	1519.94
894.301	1525.43
894.599	1524.27
894.897	1525.3
895.195	1506.21
895.493	1496.23
895.791	1501.39
896.089	1503.44
896.386	1498.32
896.684	1501.13
896.981	1503.89
897.279	1494.94
897.576	1501.92
897.874	1486.97
898.171	1485.15
898.468	1479.81
898.765	1478.22
899.062	1492.64
899.359	1496.61
899.656	1496.23
899.953	1487.13
900.25	1480.82
900.547	1462.33
900.843	1455.77
901.14	1470.16
901.436	1480.97
901.733	1481.22
902.029	1482.66
902.325	1479.64
902.622	1461.42
902.918	1461.45
903.214	1460.43
903.51	1445.4
903.806	1449.93
904.102	1453.33
904.398	1459.25
904.694	1463.37
904.989	1473.75
905.285	1460.35
905.581	1447.5
905.876	1448.46
906.171	1438.55
906.467	1441.74
906.762	1450.25
907.057	1453.32
907.353	1462.03
907.648	1467.56
907.943	1469
908.238	1460.32
908.533	1441.58
908.827	1428.85
909.122	1423.37
909.417	1430.85
909.711	1438.96
910.006	1448.15
910.301	1444.21
910.595	1444.65
910.889	1441.28
911.184	1421.65
911.478	1418.67
911.772	1410.35
912.066	1400.65
912.36	1393.22
912.654	1387.18
912.948	1376.94
913.242	1383.79
913.536	1373.82
913.829	1366.99
914.123	1361.92
914.416	1347.43
914.71	1350.3
915.003	1354.83
915.297	1357.09
915.59	1351.07
915.883	1346.02
916.176	1335.03
916.469	1323.27
916.762	1315.68
917.055	1302.25
917.348	1301.17
917.641	1309.91
917.934	1310.47
918.226	1313.46
918.519	1308.66
918.811	1306.68
919.104	1305.57
919.396	1296.61
919.689	1285.51
919.981	1276.6
920.273	1270.35
920.565	1270.41
920.857	1261.07
921.149	1255.44
921.441	1247.68
921.733	1238.22
922.025	1220.33
922.316	1206.12
922.608	1201.77
922.9	1193.35
923.191	1191.04
923.483	1197.06
923.774	1189.18
924.065	1190.68
924.357	1188.97
924.648	1180.69
924.939	1174.5
925.23	1162.73
925.521	1161.5
925.812	1153.06
926.102	1142.76
926.393	1137.89
926.684	1135.13
926.975	1129.25
927.265	1121.6
927.556	1115.75
927.846	1106.39
928.136	1097.83
928.427	1096.07
928.717	1098.01
929.007	1101.59
929.297	1095.63
929.587	1088.78
929.877	1088.02
930.167	1085.29
930.457	1075.06
930.746	1056.16
931.036	1046.3
931.325	1037.65
931.615	1031.44
931.904	1036.21
932.194	1033.4
932.483	1034.63
932.772	1033.11
933.062	1026.95
933.351	1019.95
933.64	1005.34
933.929	1004.54
934.218	1000.85
934.506	995.82
934.795	997.05
935.084	996.73
935.372	994.55
935.661	989.65
935.949	981.13
936.238	973.63
936.526	959.63
936.815	948.93
937.103	944.09
937.391	940.26
937.679	935.7
937.967	930.7
938.255	926.91
938.543	922.8
938.831	917.91
939.118	918.23
939.406	914.54
939.693	908.22
939.981	897.47
940.268	891.75
940.556	884.49
940.843	880.83
941.13	880.55
941.418	880.67
941.705	878.83
941.992	873.17
942.279	871.65
942.566	860.67
942.852	855.2
943.139	848.05
943.426	843.13
943.712	844.61
943.999	847.99
944.285	848.98
944.572	845.98
944.858	843.51
945.144	838.14
945.431	828.08
945.717	821.16
946.003	814.4
946.289	805.84
946.575	803.34
946.861	798.78
947.146	800.39
947.432	800.74
947.718	793.85
948.003	793.43
948.289	786.34
948.574	776.01
948.86	768.15
949.145	759
949.43	755.17
949.715	753.2
950	749.45
950.285	744.53
950.57	745.53
950.855	745.41
951.14	744.94
951.425	741.44
951.709	737.92
951.994	731.04
952.278	729.35
952.563	723.18
952.847	719.94
953.132	714.77
953.416	716
953.7	712.06
953.984	707.44
954.268	704.2
954.552	702.6
954.836	697.62
955.12	690.03
955.404	683.46
955.687	676.38
955.971	674.77
956.254	673.38
956.538	675.68
956.821	676.34
957.105	671.77
957.388	670.47
957.671	666.15
957.954	664.01
958.237	658.17
958.52	655.13
958.803	650.74
959.086	649.97
959.369	647.62
959.652	643.73
959.934	642.74
960.217	640
960.499	640.77
960.782	635.75
961.064	630.05
961.346	628.87
961.629	622.56
961.911	619.26
962.193	613.58
962.475	613.91
962.757	611.6
963.039	610.46
963.32	609.5
963.602	605.59
963.884	602.63
964.165	594.64
964.447	594.55
964.728	587.4
965.01	585.94
965.291	584.26
965.572	581.23
965.853	580.95
966.134	579.75
966.415	579.53
966.696	580.56
966.977	577.78
967.258	577.59
967.539	573.43
967.819	568.86
968.1	563.6
968.38	557
968.661	555.68
968.941	549.33
969.222	549.8
969.502	549.52
969.782	548.44
970.062	547.64
970.342	547.02
970.622	543.21
970.902	540.55
971.182	536.05
971.462	534.09
971.741	531.01
972.021	529.18
972.3	526.7
972.58	527.84
972.859	524.3
973.138	523.91
973.418	522.27
973.697	516.95
973.976	514.38
974.255	510.93
974.534	510.11
974.813	505.39
975.092	504.6
975.37	503.05
975.649	502.72
975.928	502.61
976.206	501.38
976.485	501
976.763	496.46
977.041	495.67
977.32	493.14
977.598	489.33
977.876	485.06
978.154	484.46
978.432	480.44
978.71	478.05
978.988	479.13
979.265	476.09
979.543	475.38
979.821	473.46
980.098	474.99
980.376	472.65
980.653	468.13
980.93	468.05
981.208	465.05
981.485	463.96
981.762	460.34
982.039	454.01
982.316	455.82
982.593	454.87
982.87	454.85
983.146	455.93
983.423	453.24
983.7	450.12
983.976	448.97
984.253	445.95
984.529	447.31
984.805	444.56
985.082	439.59
985.358	440.2
985.634	440.91
985.91	438.52
986.186	438.88
986.462	438.21
986.738	438.98
987.013	435.68
987.289	436.28
987.565	430.81
987.84	428.18
988.116	427.02
988.391	427.09
988.666	425.78
988.942	421.79
989.217	420.17
989.492	420.27
989.767	418.83
990.042	420.14
990.317	417.98
990.592	416.95
990.866	414.74
991.141	416.54
991.416	412.41
991.69	412.64
991.964	410.42
992.239	410.89
992.513	409.07
992.787	406.52
993.062	403.86
993.336	404.99
993.61	405.14
993.884	404.29
994.158	402.92
994.431	401.86
994.705	400.03
994.979	399.19
995.252	398.99
995.526	396.32
995.799	396.11
996.073	396.07
996.346	394.85
996.619	392.48
996.892	390.93
997.165	392.7
997.438	390.52
997.711	389.12
997.984	388.4
998.257	389.17
998.53	388.79
998.802	386.58
999.075	385.26
999.347	386.01
999.62	385.44
999.892	383.56
1000.165	383.32
1000.437	381.9
1000.709	381.89
1000.981	379.15
1001.253	380.45
1001.525	378.83
1001.797	378.21
1002.068	377.76
1002.34	375.46
1002.612	376.2
1002.883	376.66
1003.155	376.2
1003.426	374.68
1003.698	373.93
1003.969	373.46
1004.24	371.36
1004.511	371.96
1004.782	372.92
1005.053	372.62
1005.324	372.25
1005.595	369.56
1005.866	368.05
1006.136	366.48
1006.407	366.69
1006.678	368.05
1006.948	366.04
1007.218	367.22
1007.489	364.99
1007.759	363.46
1008.029	364.31
1008.299	364.54
1008.569	367.75
1008.839	362.79
1009.109	365.22
1009.379	364.12
1009.649	360.96
1009.918	360.1
1010.188	359.42
1010.458	360.91
1010.727	360.9
1010.996	359.25
1011.266	360.65
1011.535	359.22
1011.804	358.4
1012.073	358.76
1012.342	360.81
1012.611	358.16
1012.88	357.3
1013.149	356.06
1013.417	357.02
1013.686	356.14
1013.955	356.98
1014.223	355.17
1014.492	355.39
1014.76	354.11
1015.028	354.34
1015.296	355.58
1015.565	354.16
1015.833	353.99
1016.101	352.11
1016.368	352.93
1016.636	352.02
1016.904	352.76
1017.172	351.77
1017.439	352.2
1017.707	350.98
1017.974	350.72
1018.242	351.25
1018.509	352.92
1018.776	350.2
1019.044	351.7
1019.311	352.76
1019.578	352.89
1019.845	350.68
1020.112	350.55
1020.378	350.55
1020.645	350.55
