Data from 190516_Kr_dark_FLMS138901_12-44-53-145.txt Node
Date: Thu May 16 12:44:53 EDT 2019
User: pSAM
Spectrometer: FLMS13890
Trigger mode: 0
Integration Time (sec): 5.000000E-3
Scans to average: 1000
Electric dark correction enabled: true
Nonlinearity correction enabled: false
Boxcar width: 0
XAxis mode: Wavelengths
Number of Pixels in Spectrum: 2048
>>>>>Begin Spectral Data<<<<<
342.097	-47.3
342.483	-47.3
342.868	-47.3
343.254	-92.33
343.639	-94.55
344.025	-98.37
344.41	-91.64
344.796	-86.1
345.181	-78.55
345.567	-65.66
345.952	-50.76
346.337	-33.4
346.722	-19.57
347.107	-0.13
347.493	16.53
347.878	35.41
348.263	55.28
348.648	75.68
349.033	94.27
349.418	114.05
349.802	132.95
350.187	152.34
350.572	169.39
350.957	188.41
351.342	203.84
351.726	217.75
352.111	234.35
352.495	248.21
352.88	261.34
353.264	274.07
353.649	281.7
354.033	291.81
354.418	302.08
354.802	310.61
355.186	316.74
355.57	323.38
355.955	329.06
356.339	333.58
356.723	337.28
357.107	340.75
357.491	342.89
357.875	345.69
358.259	345.92
358.643	348.21
359.026	349.04
359.41	348.28
359.794	349.37
360.178	347.02
360.561	347
360.945	344.41
361.329	341.82
361.712	341.59
362.096	341.51
362.479	337.69
362.862	336.05
363.246	334.96
363.629	333.28
364.012	332.36
364.396	330.84
364.779	329.62
365.162	327.5
365.545	326.28
365.928	323.64
366.311	322.3
366.694	321.68
367.077	319.97
367.46	319.02
367.843	318.95
368.226	315.96
368.608	319.81
368.991	318.52
369.374	317.63
369.756	315.9
370.139	316.04
370.521	315.92
370.904	315.64
371.286	313.11
371.669	314.05
372.051	313.79
372.433	313.91
372.816	316.19
373.198	317.36
373.58	317.48
373.962	317.28
374.344	320.07
374.726	319.07
375.108	319.35
375.49	318.63
375.872	318
376.254	321.18
376.636	320.57
377.018	319.81
377.399	322.28
377.781	323.4
378.163	322.35
378.544	321.96
378.926	323.14
379.307	323.85
379.689	324.54
380.07	324.32
380.452	324.84
380.833	325.94
381.214	325.04
381.596	327.85
381.977	328.58
382.358	327.87
382.739	330.03
383.12	326.85
383.501	329.49
383.882	329.56
384.263	329.23
384.644	330.14
385.025	330.44
385.406	331.6
385.787	333.95
386.167	331.9
386.548	331.93
386.929	332.48
387.309	332.43
387.69	332.98
388.07	331.98
388.451	335.89
388.831	333.6
389.211	333.81
389.592	335.26
389.972	334.08
390.352	334.4
390.733	335.44
391.113	335.19
391.493	334.41
391.873	335.6
392.253	336.1
392.633	338.44
393.013	337.9
393.393	337.63
393.772	338.54
394.152	337.03
394.532	338.98
394.912	338.53
395.291	339.13
395.671	338.82
396.05	341.3
396.43	339.63
396.809	339.96
397.189	340.55
397.568	339.88
397.948	339.73
398.327	342.18
398.706	341.22
399.085	342.47
399.465	343.09
399.844	342.41
400.223	342.15
400.602	342.2
400.981	342.99
401.36	343.35
401.739	343.23
402.117	344.31
402.496	343.86
402.875	344.77
403.254	345.09
403.632	344.51
404.011	343.1
404.39	346.82
404.768	346.28
405.147	347.09
405.525	345.05
405.903	348.04
406.282	347.18
406.66	346.65
407.038	347.64
407.417	347.58
407.795	348.2
408.173	349.56
408.551	349.55
408.929	346.83
409.307	349.9
409.685	350.14
410.063	350.41
410.441	350.2
410.818	350.35
411.196	349.32
411.574	348.95
411.952	352.27
412.329	353.19
412.707	351.73
413.084	354.22
413.462	349.74
413.839	352.51
414.217	352.15
414.594	353.09
414.971	352.54
415.349	351.57
415.726	352.07
416.103	354.11
416.48	351.7
416.857	352.37
417.234	354.19
417.611	352.03
417.988	355.05
418.365	355.95
418.742	355.62
419.119	354.19
419.495	354.32
419.872	356.65
420.249	362.87
420.625	357.07
421.002	355.97
421.379	357.09
421.755	356.36
422.131	356.12
422.508	356.6
422.884	357.54
423.26	355.38
423.637	357.2
424.013	356.74
424.389	357.03
424.765	358.09
425.141	358.25
425.517	357.5
425.893	359.02
426.269	359.2
426.645	358.91
427.021	359.28
427.397	360.48
427.772	359.54
428.148	359.82
428.524	360.02
428.899	361.08
429.275	359.64
429.651	360.56
430.026	359.45
430.401	360.34
430.777	361.56
431.152	361.34
431.527	362.53
431.903	360.93
432.278	361.86
432.653	361.92
433.028	362.36
433.403	361.71
433.778	361.03
434.153	361.85
434.528	363.28
434.903	364.14
435.278	365.45
435.653	367.7
436.027	367.48
436.402	365.14
436.777	365.77
437.151	363.54
437.526	363.91
437.9	366.35
438.275	363.84
438.649	362.65
439.023	364.53
439.398	361.95
439.772	364.39
440.146	365.91
440.52	364.54
440.895	364.88
441.269	365.76
441.643	363.07
442.017	364.79
442.391	366.53
442.765	365.1
443.138	365.78
443.512	363.66
443.886	366.08
444.26	365.82
444.633	367.04
445.007	367.91
445.38	366.2
445.754	366.06
446.127	366.03
446.501	366.6
446.874	367.46
447.248	366.42
447.621	367.96
447.994	367.93
448.367	367.88
448.741	366.77
449.114	368.6
449.487	368.94
449.86	368.43
450.233	366.41
450.606	367.69
450.978	367.24
451.351	389.07
451.724	370.1
452.097	366.95
452.469	367.39
452.842	368.56
453.215	368.25
453.587	368.15
453.96	368.12
454.332	369.93
454.704	369.2
455.077	367.94
455.449	368.17
455.821	368.8
456.194	369.73
456.566	368.46
456.938	370.08
457.31	368.96
457.682	368.68
458.054	368.85
458.426	368.45
458.798	370.34
459.17	371.98
459.541	371.75
459.913	369.18
460.285	369.73
460.656	370.64
461.028	371.26
461.399	370.59
461.771	369.96
462.142	370.36
462.514	370.5
462.885	369.6
463.256	369.35
463.628	370.98
463.999	369.18
464.37	369.22
464.741	371.49
465.112	370.78
465.483	371.2
465.854	372.21
466.225	371.56
466.596	370.12
466.967	372.37
467.338	370.71
467.708	371.3
468.079	372
468.45	372.21
468.82	370.88
469.191	370.96
469.561	371.88
469.932	372.39
470.302	373.17
470.673	371.43
471.043	372.74
471.413	370.86
471.783	374.15
472.154	372.24
472.524	372.23
472.894	372.41
473.264	372.65
473.634	372.76
474.004	371.44
474.374	371.75
474.743	370.89
475.113	371.15
475.483	372.22
475.853	370.15
476.222	371.97
476.592	373.44
476.961	371.25
477.331	372.04
477.7	372.56
478.07	372.32
478.439	372.23
478.808	371.73
479.178	373.58
479.547	372.99
479.916	373.02
480.285	372.32
480.654	374.01
481.023	373.01
481.392	373.17
481.761	372.51
482.13	373.49
482.499	374.13
482.867	373.57
483.236	374.64
483.605	373.36
483.973	374.39
484.342	373.33
484.71	374.42
485.079	373.39
485.447	375.51
485.816	374.76
486.184	374.66
486.552	373.05
486.921	374.86
487.289	375.69
487.657	374.65
488.025	373.7
488.393	372.86
488.761	375.07
489.129	374.13
489.497	374.92
489.865	376.3
490.233	375.78
490.6	374.68
490.968	374.88
491.336	372.54
491.703	374.18
492.071	375.88
492.438	375.03
492.806	373.17
493.173	372.2
493.541	374.08
493.908	373.28
494.275	372.76
494.642	373.55
495.01	373.18
495.377	373.32
495.744	374.23
496.111	374
496.478	372.05
496.845	376.32
497.211	373.81
497.578	374.03
497.945	374.54
498.312	373.48
498.678	374.01
499.045	372.39
499.412	373.45
499.778	372.83
500.145	373.77
500.511	373.18
500.878	375.21
501.244	372.59
501.61	372.79
501.976	374.9
502.343	371.97
502.709	372.53
503.075	373.84
503.441	371.62
503.807	373.39
504.173	373.78
504.539	372.4
504.905	374.9
505.27	371.41
505.636	373.13
506.002	372.13
506.367	370.15
506.733	373.34
507.099	372.02
507.464	373.13
507.829	372.83
508.195	374.5
508.56	372.42
508.926	371.98
509.291	373.94
509.656	372.59
510.021	372.77
510.386	373.5
510.751	371.03
511.116	372.41
511.481	375.23
511.846	372.55
512.211	371.43
512.576	372.17
512.941	373.55
513.305	373.4
513.67	371.22
514.035	372.01
514.399	372.62
514.764	373.24
515.128	372.28
515.493	373.46
515.857	372.77
516.221	373.19
516.585	371.9
516.95	372.22
517.314	371.72
517.678	370.88
518.042	372.07
518.406	373.45
518.77	373.37
519.134	372.05
519.498	373.49
519.862	370.53
520.225	373.14
520.589	373.67
520.953	373.18
521.316	375.18
521.68	371.36
522.043	371.98
522.407	372.04
522.77	371.42
523.134	373.55
523.497	369.94
523.86	370.39
524.223	373.37
524.587	369.92
524.95	372.38
525.313	371.5
525.676	370.54
526.039	371.04
526.402	372.35
526.765	371.35
527.127	371.31
527.49	371.51
527.853	371.06
528.215	371.81
528.578	371.11
528.941	371.54
529.303	371.97
529.666	371.2
530.028	372.86
530.39	370.5
530.753	372.16
531.115	371.28
531.477	371.59
531.839	372.39
532.201	372
532.564	371.56
532.926	370.63
533.287	372.06
533.649	369.68
534.011	373.18
534.373	370.28
534.735	371.21
535.097	372.68
535.458	373.47
535.82	370.36
536.181	372.82
536.543	371.66
536.904	372.51
537.266	371.19
537.627	372.12
537.988	372.41
538.35	372.75
538.711	374.65
539.072	372.49
539.433	375.13
539.794	374.43
540.155	375.81
540.516	379.42
540.877	378.1
541.238	377.54
541.599	383.89
541.959	386.41
542.32	388.07
542.681	391.92
543.041	391.28
543.402	390.34
543.762	389.75
544.123	391.25
544.483	389.41
544.844	388.03
545.204	389.08
545.564	390.92
545.924	392.98
546.284	390.93
546.644	383.19
547.004	380.22
547.364	375.96
547.724	375.21
548.084	376.39
548.444	374.22
548.804	377.18
549.164	376.12
549.523	375.88
549.883	375.59
550.242	372.92
550.602	374.41
550.961	374.58
551.321	375.46
551.68	375.82
552.04	374.12
552.399	374.52
552.758	374.67
553.117	374.15
553.476	372.76
553.835	372.19
554.194	373.14
554.553	372.83
554.912	371.73
555.271	371.84
555.63	369.07
555.989	370.41
556.347	370.15
556.706	370.2
557.065	372.59
557.423	369.58
557.782	369.73
558.14	368.92
558.499	369.68
558.857	370.33
559.215	367.86
559.573	369.44
559.932	367.82
560.29	369.75
560.648	369.36
561.006	371.07
561.364	369.13
561.722	371.29
562.08	371.05
562.438	368.73
562.795	370.1
563.153	368.66
563.511	368.85
563.868	368.32
564.226	368.12
564.583	367.7
564.941	368.07
565.298	368.55
565.656	368.88
566.013	367.79
566.37	369.17
566.727	366.68
567.085	367.31
567.442	370.01
567.799	370.14
568.156	368.64
568.513	369.48
568.87	370.05
569.226	367.76
569.583	369.82
569.94	368.05
570.297	367.38
570.653	367.8
571.01	368.15
571.366	369.71
571.723	368.71
572.079	368.16
572.436	367.48
572.792	368.46
573.148	368.62
573.505	369.69
573.861	367.53
574.217	369.53
574.573	368.18
574.929	367.34
575.285	370.21
575.641	371.05
575.997	368.2
576.352	369.19
576.708	370.57
577.064	372.23
577.42	370.15
577.775	369.54
578.131	368.09
578.486	369.43
578.842	371.63
579.197	371.37
579.552	370.59
579.908	370.11
580.263	370.23
580.618	372.13
580.973	370.59
581.328	369.73
581.683	368.23
582.038	371.73
582.393	369.8
582.748	368.07
583.103	372.66
583.458	372.95
583.812	371.89
584.167	370.8
584.522	372.26
584.876	372.18
585.231	372.11
585.585	371.89
585.939	370.62
586.294	372.76
586.648	370.77
587.002	372.24
587.356	372.82
587.711	373.04
588.065	372.44
588.419	370.14
588.773	370.14
589.127	371.59
589.48	371.85
589.834	370.94
590.188	369.01
590.542	370.42
590.895	369.55
591.249	369.28
591.603	369.04
591.956	370.79
592.309	368.18
592.663	369.62
593.016	371.48
593.369	369.84
593.723	371.04
594.076	368.94
594.429	370.63
594.782	367.72
595.135	365.95
595.488	368.13
595.841	365.93
596.194	368.39
596.547	367.68
596.899	365.97
597.252	369.13
597.605	368.71
597.957	369.16
598.31	367.44
598.662	368.34
599.015	368.16
599.367	368.85
599.719	367.51
600.072	368.89
600.424	370.8
600.776	365.56
601.128	366.97
601.48	366.48
601.832	366.12
602.184	366.47
602.536	367.31
602.888	365.78
603.24	366.57
603.592	367.67
603.943	365.7
604.295	365.64
604.646	366.46
604.998	365.72
605.349	367.82
605.701	365.92
606.052	368.22
606.404	366.65
606.755	367.23
607.106	367.79
607.457	366.98
607.808	367.1
608.159	368.05
608.51	365.52
608.861	368.33
609.212	367.9
609.563	368.19
609.914	372.23
610.265	374.86
610.615	381.52
610.966	387.34
611.316	391.58
611.667	391.61
612.017	389.53
612.368	381.85
612.718	379.25
613.068	375.64
613.419	375.04
613.769	371.66
614.119	371.58
614.469	370.11
614.819	372.71
615.169	370.6
615.519	370.72
615.869	370.72
616.219	370.23
616.568	367.79
616.918	369.3
617.268	369.51
617.617	366.96
617.967	369.76
618.316	369.86
618.666	367.29
619.015	366.57
619.364	368.6
619.714	367.46
620.063	367.41
620.412	367.15
620.761	368.06
621.11	369.71
621.459	368.09
621.808	367.86
622.157	367.1
622.506	367.57
622.855	367.45
623.203	366.72
623.552	367.07
623.901	365.97
624.249	365.83
624.598	366.37
624.946	367.24
625.295	366.5
625.643	366.66
625.991	364.7
626.34	367.04
626.688	364.35
627.036	363.98
627.384	365.93
627.732	363.99
628.08	366.98
628.428	366.12
628.776	365.88
629.124	365.49
629.471	367.16
629.819	365.93
630.167	366.03
630.514	366.77
630.862	367.34
631.209	367.56
631.557	368.46
631.904	366.29
632.251	365.93
632.599	365.08
632.946	365.19
633.293	364.03
633.64	363.75
633.987	364.57
634.334	366.49
634.681	366.24
635.028	364.53
635.375	363.52
635.722	366.14
636.068	364.11
636.415	364.88
636.762	365.09
637.108	365.27
637.455	364.12
637.801	364.27
638.147	365.26
638.494	363.42
638.84	363.78
639.186	364.34
639.532	363.44
639.878	365.6
640.225	364.67
640.571	364.98
640.916	363.75
641.262	363.9
641.608	365.76
641.954	364.46
642.3	364.77
642.645	363.33
642.991	362.71
643.337	363.47
643.682	363.36
644.028	364.34
644.373	364.01
644.718	365.12
645.064	364.51
645.409	365.8
645.754	363.51
646.099	363.67
646.444	364.51
646.789	366.18
647.134	364.38
647.479	362.8
647.824	363.72
648.169	363.43
648.513	363.61
648.858	364.71
649.203	365.94
649.547	364.06
649.892	362.89
650.236	363.8
650.581	365.11
650.925	365.89
651.269	364.98
651.613	363.96
651.958	365.51
652.302	363.12
652.646	363.39
652.99	363.56
653.334	363.36
653.678	365.2
654.022	364.98
654.365	362.14
654.709	363.18
655.053	365.45
655.396	365.7
655.74	362.69
656.083	364.19
656.427	363.21
656.77	363.92
657.114	362.51
657.457	364.61
657.8	364.98
658.143	362.96
658.486	364.51
658.83	363.86
659.173	362.72
659.516	361.11
659.858	364.4
660.201	364.8
660.544	363.25
660.887	362.48
661.229	361.82
661.572	363.48
661.915	361.75
662.257	363.62
662.6	364.39
662.942	362.58
663.284	364.96
663.627	363.95
663.969	363.88
664.311	363.37
664.653	364.26
664.995	362.72
665.337	362.44
665.679	362.38
666.021	363.33
666.363	365.01
666.705	365.17
667.046	362.93
667.388	361.89
667.73	362.84
668.071	362.92
668.413	362.18
668.754	363.43
669.096	362.17
669.437	362.49
669.778	361.28
670.119	361.72
670.461	361.68
670.802	360.54
671.143	363.53
671.484	362.5
671.825	362.09
672.165	361.31
672.506	361.16
672.847	362.68
673.188	362.72
673.528	363.18
673.869	358.49
674.21	360.86
674.55	361.69
674.89	363.4
675.231	359.3
675.571	364.04
675.911	364.07
676.252	363.27
676.592	363.26
676.932	364.83
677.272	362.03
677.612	362.25
677.952	361.03
678.292	360.14
678.631	363.06
678.971	361.41
679.311	362.41
679.651	361.55
679.99	359.66
680.33	363.13
680.669	361.22
681.009	360.36
681.348	362.57
681.687	362.31
682.026	361.63
682.366	361.83
682.705	360.74
683.044	362.49
683.383	363.46
683.722	361.66
684.061	361.69
684.4	360.49
684.738	360.83
685.077	363.79
685.416	362.13
685.754	360.66
686.093	363.93
686.431	360.91
686.77	361.64
687.108	361.41
687.447	363.84
687.785	361.17
688.123	360.6
688.461	362.68
688.799	360.8
689.137	362.56
689.475	363.11
689.813	361.36
690.151	361.4
690.489	360.88
690.827	363.05
691.164	361.25
691.502	362.23
691.84	361.99
692.177	362.23
692.515	361.05
692.852	362.85
693.189	362.03
693.527	360.77
693.864	361.61
694.201	363.08
694.538	362.49
694.875	363.11
695.212	362
695.549	361.96
695.886	363.74
696.223	362.66
696.56	361.24
696.897	361.29
697.233	362.46
697.57	360.72
697.906	361.64
698.243	361.44
698.579	361.43
698.916	363.26
699.252	362.13
699.588	360.37
699.924	363.57
700.261	361.48
700.597	360.97
700.933	360.86
701.269	360.84
701.605	359.76
701.941	361.81
702.276	361.91
702.612	360.75
702.948	360.62
703.283	361.33
703.619	360.78
703.954	362.42
704.29	362.75
704.625	361
704.961	361.7
705.296	360.58
705.631	361.44
705.966	362.58
706.301	361.77
706.637	361.33
706.972	361.74
707.306	362.94
707.641	362.92
707.976	360.27
708.311	362.63
708.646	362.54
708.98	362.1
709.315	361.68
709.649	361.93
709.984	362.03
710.318	360.43
710.653	362.3
710.987	360.71
711.321	360.17
711.655	359.78
711.989	362.32
712.324	361.07
712.658	361.45
712.992	361.11
713.325	362.75
713.659	359.89
713.993	363.36
714.327	359.81
714.66	360.45
714.994	359.85
715.328	359.53
715.661	358.86
715.994	359.83
716.328	359.4
716.661	359.59
716.994	361.54
717.328	360.2
717.661	359.73
717.994	360.34
718.327	360.07
718.66	361.77
718.993	360.52
719.325	360.68
719.658	361.57
719.991	362.43
720.324	360.31
720.656	362.49
720.989	359.95
721.321	360.58
721.654	360.49
721.986	359.07
722.318	361.06
722.651	361.53
722.983	360.93
723.315	359.93
723.647	360.77
723.979	362.25
724.311	359.88
724.643	360.81
724.975	359.91
725.307	359.84
725.638	358.93
725.97	361.31
726.302	363.33
726.633	358.6
726.965	358.93
727.296	360.72
727.628	360.23
727.959	360.29
728.29	360.42
728.621	359.4
728.952	360.58
729.284	360.98
729.615	361.01
729.945	361.48
730.276	359.28
730.607	361.25
730.938	361.48
731.269	360.12
731.599	358.98
731.93	362.79
732.261	360.3
732.591	361.27
732.922	358.9
733.252	359.82
733.582	359.28
733.912	359.88
734.243	359.65
734.573	359.39
734.903	361
735.233	359.43
735.563	358.96
735.893	359.76
736.223	360.42
736.552	358.28
736.882	361
737.212	358.67
737.541	359.36
737.871	359.57
738.2	359.03
738.53	359.41
738.859	359.54
739.188	359.06
739.518	359.24
739.847	358.51
740.176	360.44
740.505	358.71
740.834	359.46
741.163	360.31
741.492	359.28
741.821	360.73
742.15	359.12
742.478	359.35
742.807	359.26
743.136	360.35
743.464	357.98
743.793	360.52
744.121	358.55
744.449	358.12
744.778	359.35
745.106	360.16
745.434	360.64
745.762	358.27
746.09	360.46
746.418	360.12
746.746	357.53
747.074	358.61
747.402	360.21
747.73	359.54
748.057	359.78
748.385	360.73
748.712	357.58
749.04	360.29
749.367	360.9
749.695	358.65
750.022	359.74
750.349	359.55
750.677	358.34
751.004	367.7
751.331	360.53
751.658	360.99
751.985	361.46
752.312	359.91
752.639	360.09
752.966	361.03
753.292	361.47
753.619	359.89
753.946	359.86
754.272	359.88
754.599	359.58
754.925	358.09
755.251	358.51
755.578	358.22
755.904	357.8
756.23	357.69
756.556	358.23
756.882	359.33
757.208	357.85
757.534	358.02
757.86	360.56
758.186	357.9
758.512	358.57
758.838	360.73
759.163	358.9
759.489	360.3
759.814	359.18
760.14	358.18
760.465	360.1
760.791	358.32
761.116	358.24
761.441	358.27
761.766	359.77
762.092	360.12
762.417	356.94
762.742	358.08
763.066	358.79
763.391	358.75
763.716	360.52
764.041	359.23
764.366	359.66
764.69	359.06
765.015	359.03
765.339	358.78
765.664	360.12
765.988	357.84
766.312	359.33
766.637	360.13
766.961	358.23
767.285	356.55
767.609	357.17
767.933	358.63
768.257	357.98
768.581	358.17
768.905	357.91
769.229	358.95
769.552	357.93
769.876	358.71
770.2	358.62
770.523	360.85
770.847	359.52
771.17	357.25
771.493	358.18
771.817	357.27
772.14	358.46
772.463	358.99
772.786	359.54
773.109	359.24
773.432	359.21
773.755	357.66
774.078	360.25
774.401	358.19
774.724	358.26
775.046	357.39
775.369	358.75
775.692	357.94
776.014	359.14
776.336	357.74
776.659	357.64
776.981	360.16
777.303	358.58
777.626	357.52
777.948	358.84
778.27	356.29
778.592	358.27
778.914	359.84
779.236	356.67
779.557	357.55
779.879	357.21
780.201	358.08
780.523	358.5
780.844	358.95
781.166	355.35
781.487	358.34
781.809	358.25
782.13	357.31
782.451	356.74
782.772	357.85
783.094	357.53
783.415	358.81
783.736	356.66
784.057	358.6
784.378	357.21
784.698	357.33
785.019	358.67
785.34	357.97
785.661	355.34
785.981	357.48
786.302	358.14
786.622	358.01
786.943	358.61
787.263	358.51
787.583	356.74
787.903	357.71
788.224	357.56
788.544	355.45
788.864	359.04
789.184	359.75
789.504	357.64
789.824	357.91
790.143	357.96
790.463	356.07
790.783	357.29
791.102	356.96
791.422	358.22
791.741	356.02
792.061	356.02
792.38	357.52
792.699	359
793.019	359.65
793.338	358.78
793.657	357.78
793.976	358.4
794.295	357.2
794.614	358.31
794.933	358.11
795.252	357.29
795.57	357.55
795.889	357.93
796.208	358.52
796.526	356.17
796.845	356.44
797.163	358.42
797.482	357.79
797.8	357.91
798.118	356
798.436	359.02
798.754	358.06
799.073	359.3
799.391	356.84
799.708	356.71
800.026	356.52
800.344	357.58
800.662	361.23
800.98	359.44
801.297	355.22
801.615	357.88
801.932	358.41
802.25	356.76
802.567	357.52
802.884	358.24
803.202	358.38
803.519	355.79
803.836	356.78
804.153	357.77
804.47	355.82
804.787	356.88
805.104	356.17
805.421	358.28
805.737	355.99
806.054	357.4
806.371	357.65
806.687	357.39
807.004	355.99
807.32	358.59
807.637	356.75
807.953	355.9
808.269	355.8
808.585	357.69
808.902	356.46
809.218	357.04
809.534	356.09
809.85	357.25
810.165	358.15
810.481	358.22
810.797	357.35
811.113	356.15
811.428	358.13
811.744	356.08
812.059	356.75
812.375	358.06
812.69	356.25
813.006	357.09
813.321	356.43
813.636	356.16
813.951	356.9
814.266	358.14
814.581	356.49
814.896	356.83
815.211	357
815.526	356.76
815.841	356.66
816.155	355.92
816.47	355.69
816.784	356.42
817.099	356.44
817.413	356.13
817.728	358.82
818.042	357.15
818.356	354.82
818.67	357.15
818.985	356.29
819.299	355.58
819.613	355.79
819.926	354.96
820.24	356.62
820.554	356.4
820.868	356.82
821.182	356.71
821.495	355.98
821.809	357.61
822.122	359.88
822.436	357.18
822.749	355.64
823.062	354.5
823.376	357.38
823.689	356.29
824.002	354.76
824.315	356.95
824.628	356.63
824.941	355.38
825.254	357.95
825.566	355.98
825.879	355.9
826.192	357.4
826.504	356.73
826.817	356.01
827.129	356.1
827.442	356.43
827.754	356.26
828.066	357.87
828.379	356.75
828.691	357.69
829.003	356.92
829.315	355.73
829.627	357.21
829.939	356.45
830.251	355.76
830.562	357.5
830.874	357.71
831.186	357
831.497	356.17
831.809	356.82
832.12	355.74
832.432	356.25
832.743	356.04
833.054	357.19
833.365	356.48
833.676	354.42
833.988	356.23
834.299	357.56
834.61	358.58
834.92	355.24
835.231	354.56
835.542	352.92
835.853	355.41
836.163	355.48
836.474	356.9
836.784	355.46
837.095	358.02
837.405	356.51
837.715	356.17
838.026	357.04
838.336	356.75
838.646	355.65
838.956	355.41
839.266	354.78
839.576	356.22
839.886	354.99
840.195	353.84
840.505	355.62
840.815	356.77
841.124	356.72
841.434	356.58
841.743	357.08
842.053	356.18
842.362	355.96
842.671	356.11
842.981	356.15
843.29	355.54
843.599	354.98
843.908	354.61
844.217	354.67
844.526	354.28
844.835	355.84
845.143	356.29
845.452	355.81
845.761	355.25
846.069	355.54
846.378	354.2
846.686	355.71
846.995	355.76
847.303	356.98
847.611	356.07
847.919	353.98
848.227	354.39
848.535	355.62
848.843	356.84
849.151	354.49
849.459	355.63
849.767	355.95
850.075	356.2
850.382	353.74
850.69	355.44
850.998	354.78
851.305	354.3
851.612	353.17
851.92	354.93
852.227	355.21
852.534	354.59
852.841	354.85
853.148	353.93
853.455	353.47
853.762	355.32
854.069	354.13
854.376	355.75
854.683	354.39
854.99	356.06
855.296	355.32
855.603	357.08
855.909	355.77
856.216	354.06
856.522	356.12
856.828	355.8
857.135	355.04
857.441	353.77
857.747	355.83
858.053	354.34
858.359	355.93
858.665	355.87
858.971	354.04
859.276	355.96
859.582	355.83
859.888	357.13
860.193	355.94
860.499	354.01
860.804	356.3
861.11	357.01
861.415	354.5
861.72	355.21
862.026	354.24
862.331	354.53
862.636	351.97
862.941	355.16
863.246	355.06
863.551	355.45
863.855	355.88
864.16	355.72
864.465	353.07
864.769	353.5
865.074	356.23
865.378	356.22
865.683	355.74
865.987	356.5
866.291	355.23
866.596	354.9
866.9	355.52
867.204	354.06
867.508	355.02
867.812	354.91
868.116	355.37
868.42	354.87
868.723	353.07
869.027	354.62
869.331	355.41
869.634	355.39
869.938	356.44
870.241	357.19
870.544	355.2
870.848	354.97
871.151	354.27
871.454	353.87
871.757	353.61
872.06	352.5
872.363	354.22
872.666	355.22
872.969	354.24
873.272	355.26
873.574	354.68
873.877	353.79
874.18	354.02
874.482	355.03
874.785	354.71
875.087	353.57
875.389	354.62
875.692	353.43
875.994	354.58
876.296	355.48
876.598	353.67
876.9	355.05
877.202	355.28
877.504	355.4
877.805	354.52
878.107	354.63
878.409	354.15
878.71	356.29
879.012	355.03
879.313	353.09
879.615	353.51
879.916	354.27
880.217	353.76
880.518	354.43
880.82	355.19
881.121	353.03
881.422	355.35
881.723	354.48
882.023	355.29
882.324	354.03
882.625	354.49
882.926	356.81
883.226	355.44
883.527	356.17
883.827	353.25
884.128	352.71
884.428	353.13
884.728	354.44
885.028	353.96
885.328	354.94
885.629	354.15
885.929	354.1
886.228	356.19
886.528	354.43
886.828	353.01
887.128	353.99
887.427	352.75
887.727	354.39
888.027	353.96
888.326	353.12
888.625	353.05
888.925	355.49
889.224	352.89
889.523	354.11
889.822	354.3
890.121	353.1
890.42	354.04
890.719	352.86
891.018	355.18
891.317	353.34
891.616	353.06
891.914	352.92
892.213	355.15
892.512	353.09
892.81	352.95
893.108	353.93
893.407	353.39
893.705	353.16
894.003	354.47
894.301	353.07
894.599	353.14
894.897	354.34
895.195	355.35
895.493	353.57
895.791	355.38
896.089	354.01
896.386	351.15
896.684	354.6
896.981	352.4
897.279	353.86
897.576	354
897.874	354.5
898.171	354.6
898.468	355.58
898.765	354.67
899.062	352.43
899.359	352.36
899.656	353.66
899.953	354.47
900.25	352.87
900.547	352.95
900.843	352.54
901.14	352.25
901.436	354.32
901.733	352.46
902.029	353.73
902.325	354.12
902.622	353.33
902.918	355.16
903.214	355.25
903.51	353.34
903.806	354.16
904.102	354.27
904.398	352.09
904.694	354.1
904.989	353.38
905.285	352.17
905.581	353.12
905.876	354.19
906.171	353.9
906.467	353.61
906.762	351.15
907.057	351.84
907.353	353.93
907.648	354.41
907.943	353.53
908.238	351.32
908.533	351.81
908.827	354.13
909.122	354.5
909.417	352.75
909.711	354.17
910.006	352.57
910.301	355.94
910.595	351.81
910.889	352.99
911.184	353.72
911.478	353.91
911.772	353.15
912.066	350.87
912.36	353.28
912.654	353.47
912.948	352.49
913.242	352.31
913.536	354.73
913.829	351.96
914.123	353.43
914.416	352.08
914.71	354.18
915.003	354.09
915.297	353.3
915.59	353.72
915.883	353.65
916.176	353.88
916.469	352.45
916.762	354.65
917.055	351.89
917.348	353.36
917.641	351.15
917.934	352.1
918.226	351.5
918.519	351.9
918.811	353.07
919.104	352.79
919.396	352.71
919.689	354.94
919.981	352.95
920.273	353.38
920.565	352.29
920.857	352.22
921.149	352.5
921.441	353.63
921.733	354.57
922.025	352.34
922.316	351.75
922.608	351.95
922.9	354.28
923.191	352.41
923.483	351.93
923.774	352.52
924.065	355.02
924.357	352.55
924.648	354.41
924.939	352.48
925.23	352.28
925.521	352.45
925.812	353.1
926.102	351.56
926.393	349.31
926.684	353.47
926.975	353.47
927.265	352.51
927.556	353.9
927.846	352.26
928.136	352.42
928.427	351.51
928.717	353.55
929.007	352.67
929.297	351.86
929.587	354.19
929.877	352.99
930.167	354.15
930.457	351.58
930.746	353.92
931.036	355.44
931.325	352.67
931.615	352.33
931.904	354.71
932.194	352.24
932.483	352.64
932.772	350.05
933.062	354
933.351	354.37
933.64	352.38
933.929	353.97
934.218	351.71
934.506	354.29
934.795	352.18
935.084	352.41
935.372	353.82
935.661	351.99
935.949	352.5
936.238	353.62
936.526	352.55
936.815	352.31
937.103	353.86
937.391	352.19
937.679	349.34
937.967	351.96
938.255	351.72
938.543	350.52
938.831	352.89
939.118	353.47
939.406	351.88
939.693	352.3
939.981	351.22
940.268	351.86
940.556	354.48
940.843	351.4
941.13	353.65
941.418	351.72
941.705	354.8
941.992	352.02
942.279	354.13
942.566	351.88
942.852	352.1
943.139	351.34
943.426	352.92
943.712	351.87
943.999	352.66
944.285	353.78
944.572	352.64
944.858	352.53
945.144	352.11
945.431	353.61
945.717	351.26
946.003	350.83
946.289	353
946.575	350.42
946.861	351.22
947.146	350.3
947.432	353.19
947.718	350.8
948.003	352.81
948.289	353.04
948.574	352.07
948.86	353.12
949.145	353.08
949.43	351.97
949.715	352.04
950	352.13
950.285	350.63
950.57	352.49
950.855	353.72
951.14	350.85
951.425	352.11
951.709	351.52
951.994	350.54
952.278	349.64
952.563	351.04
952.847	352.59
953.132	351.94
953.416	350.55
953.7	352.32
953.984	352.13
954.268	352.55
954.552	351.44
954.836	351.07
955.12	351.95
955.404	351.77
955.687	352.7
955.971	349.42
956.254	351.66
956.538	351.03
956.821	349.99
957.105	351.42
957.388	350.27
957.671	351.69
957.954	351.97
958.237	351.49
958.52	351.82
958.803	352.75
959.086	349.9
959.369	349.74
959.652	351.44
959.934	350.53
960.217	351.69
960.499	352.44
960.782	351.56
961.064	351.98
961.346	349.23
961.629	350.13
961.911	349.85
962.193	352.36
962.475	352.69
962.757	352.05
963.039	351.55
963.32	351.33
963.602	349.55
963.884	351.27
964.165	350.74
964.447	351.12
964.728	351.76
965.01	350.63
965.291	350.58
965.572	352.5
965.853	349.3
966.134	351.94
966.415	351.79
966.696	353.5
966.977	352.16
967.258	350.67
967.539	350.1
967.819	353.14
968.1	351.16
968.38	350.76
968.661	353.88
968.941	350.71
969.222	351.99
969.502	352.12
969.782	351.91
970.062	350.89
970.342	349.57
970.622	350.89
970.902	349.32
971.182	352.07
971.462	351.65
971.741	349.72
972.021	349.75
972.3	350.29
972.58	349.68
972.859	349.96
973.138	350.66
973.418	351.16
973.697	349.41
973.976	349.91
974.255	349.6
974.534	351.53
974.813	350.07
975.092	349.44
975.37	350.07
975.649	352.13
975.928	350.84
976.206	351.37
976.485	349.74
976.763	351.25
977.041	351.16
977.32	352.02
977.598	349.52
977.876	347.89
978.154	350.18
978.432	351.49
978.71	351.24
978.988	351.66
979.265	350.01
979.543	349.71
979.821	350.19
980.098	350.44
980.376	351.14
980.653	349.24
980.93	350.25
981.208	348.46
981.485	351.21
981.762	351.47
982.039	350.75
982.316	351.61
982.593	349.9
982.87	351.79
983.146	350.81
983.423	349.77
983.7	349.74
983.976	349.72
984.253	350.36
984.529	350.04
984.805	349.57
985.082	350.56
985.358	350.44
985.634	352.1
985.91	350.92
986.186	350.75
986.462	350.29
986.738	350.97
987.013	349.69
987.289	351.89
987.565	350.4
987.84	351.06
988.116	350.31
988.391	350.25
988.666	352.38
988.942	350.34
989.217	351.31
989.492	350.07
989.767	349.8
990.042	350.59
990.317	348.97
990.592	349.29
990.866	350.53
991.141	350.55
991.416	350.73
991.69	349.98
991.964	350.72
992.239	350.24
992.513	350.38
992.787	351.31
993.062	349.78
993.336	351.47
993.61	350.1
993.884	349.22
994.158	348.92
994.431	348.92
994.705	351.21
994.979	349.42
995.252	349.07
995.526	350.22
995.799	350.8
996.073	350.99
996.346	349.82
996.619	351.62
996.892	349.5
997.165	350.69
997.438	348.81
997.711	351.5
997.984	350.6
998.257	351.29
998.53	349.26
998.802	349.97
999.075	350
999.347	349.35
999.62	349.55
999.892	349.51
1000.165	348.65
1000.437	349.85
1000.709	349.95
1000.981	351.03
1001.253	350.44
1001.525	349.09
1001.797	351.06
1002.068	350.26
1002.34	348.93
1002.612	352.44
1002.883	349.77
1003.155	350.23
1003.426	346.89
1003.698	350.33
1003.969	348.32
1004.24	349.92
1004.511	350.08
1004.782	351.52
1005.053	350.19
1005.324	351.28
1005.595	349.74
1005.866	349.01
1006.136	350.06
1006.407	348.63
1006.678	348.91
1006.948	349.23
1007.218	350.79
1007.489	350.11
1007.759	350.69
1008.029	349.37
1008.299	347.94
1008.569	350.25
1008.839	349.63
1009.109	348.03
1009.379	349.11
1009.649	347.34
1009.918	347.73
1010.188	348.46
1010.458	349.95
1010.727	348.61
1010.996	350
1011.266	350.05
1011.535	349.96
1011.804	349.89
1012.073	349.26
1012.342	348.88
1012.611	349.42
1012.88	349.27
1013.149	349.95
1013.417	348.6
1013.686	348.45
1013.955	350.81
1014.223	349.53
1014.492	349.29
1014.76	350.23
1015.028	348.77
1015.296	347.87
1015.565	347.3
1015.833	348.08
1016.101	350.74
1016.368	349.23
1016.636	348.91
1016.904	348.03
1017.172	350.47
1017.439	347.67
1017.707	350.21
1017.974	349.14
1018.242	351.47
1018.509	350.67
1018.776	348.73
1019.044	347.48
1019.311	350.65
1019.578	350.24
1019.845	347.34
1020.112	349.77
1020.378	349.77
1020.645	349.77
