Data from 190701_Kr_29K_film_FLMS138901_14-58-33-329.txt Node
Date: Mon Jul 01 14:58:33 EDT 2019
User: pSAM
Spectrometer: FLMS13890
Trigger mode: 0
Integration Time (sec): 5.000000E-3
Scans to average: 1000
Electric dark correction enabled: true
Nonlinearity correction enabled: false
Boxcar width: 0
XAxis mode: Wavelengths
Number of Pixels in Spectrum: 2048
>>>>>Begin Spectral Data<<<<<
342.097	-60.28
342.483	-60.28
342.868	-60.28
343.254	-99.65
343.639	-102.43
344.025	-101.2
344.41	-97.95
344.796	-89.52
345.181	-80.37
345.567	-64.92
345.952	-52.57
346.337	-34.69
346.722	-18.03
347.107	0.44
347.493	18.31
347.878	39.34
348.263	56.49
348.648	77.64
349.033	96.88
349.418	116.29
349.802	133.85
350.187	152.84
350.572	169.93
350.957	190.79
351.342	220.78
351.726	234.17
352.111	249.31
352.495	262.57
352.88	276.11
353.264	287.49
353.649	298.87
354.033	309.45
354.418	317.51
354.802	324.41
355.186	331.52
355.57	337.53
355.955	342.8
356.339	346.52
356.723	349.53
357.107	353.51
357.491	367.19
357.875	358.06
358.259	358.41
358.643	359.35
359.026	360.59
359.41	357.66
359.794	358.91
360.178	358.92
360.561	356.97
360.945	356.53
361.329	355.13
361.712	354.29
362.096	354.03
362.479	349.98
362.862	350.58
363.246	347.07
363.629	346.42
364.012	344.5
364.396	344.66
364.779	340.56
365.162	341.01
365.545	341.09
365.928	338.3
366.311	337.62
366.694	337.46
367.077	337.16
367.46	334.05
367.843	334.73
368.226	332.92
368.608	332.65
368.991	333.62
369.374	332.96
369.756	330.05
370.139	331.8
370.521	333.71
370.904	334.34
371.286	332.9
371.669	333.2
372.051	332.9
372.433	333.98
372.816	331.68
373.198	335.45
373.58	336.15
373.962	336.62
374.344	335.28
374.726	336.68
375.108	338.5
375.49	338.99
375.872	338.67
376.254	339.71
376.636	340.91
377.018	340.82
377.399	343.11
377.781	342.39
378.163	341.62
378.544	343.93
378.926	344.06
379.307	344.41
379.689	346.67
380.07	346.93
380.452	347.65
380.833	346.55
381.214	349.06
381.596	350.85
381.977	349.93
382.358	352.74
382.739	353.14
383.12	352.27
383.501	353.2
383.882	352.06
384.263	354.29
384.644	352.14
385.025	356.63
385.406	356.1
385.787	356.04
386.167	357.23
386.548	357.14
386.929	359.26
387.309	358.68
387.69	364.31
388.07	359.98
388.451	362.81
388.831	361.48
389.211	363.58
389.592	363.44
389.972	361.48
390.352	363.96
390.733	364.43
391.113	364.42
391.493	366.66
391.873	365.02
392.253	367.8
392.633	367.94
393.013	367.6
393.393	369.76
393.772	368.81
394.152	371.48
394.532	370.92
394.912	372.8
395.291	371.47
395.671	375.05
396.05	372.82
396.43	373.88
396.809	374.99
397.189	376.12
397.568	375.61
397.948	376.29
398.327	377.23
398.706	378.73
399.085	380.46
399.465	380.36
399.844	381.98
400.223	381.42
400.602	379.45
400.981	378.95
401.36	380.88
401.739	382.71
402.117	384.33
402.496	381.89
402.875	383.89
403.254	385.57
403.632	384.31
404.011	383.82
404.39	389.11
404.768	387.67
405.147	391.03
405.525	391.56
405.903	391.65
406.282	394.09
406.66	393.71
407.038	393.17
407.417	391.93
407.795	391.68
408.173	393.44
408.551	394.22
408.929	393.89
409.307	394.95
409.685	397.76
410.063	398.48
410.441	398.82
410.818	399.22
411.196	399.87
411.574	399.08
411.952	400.71
412.329	403.49
412.707	405.45
413.084	405.2
413.462	406.31
413.839	408.33
414.217	407.44
414.594	405.67
414.971	407.16
415.349	409.49
415.726	412.46
416.103	408.82
416.48	408.79
416.857	409.96
417.234	413.85
417.611	412.39
417.988	413.33
418.365	413.62
418.742	414.58
419.119	416.14
419.495	415.77
419.872	415.22
420.249	425.55
420.625	420.16
421.002	423.07
421.379	424.54
421.755	424.52
422.131	428.63
422.508	429.44
422.884	428.99
423.26	432.32
423.637	435.01
424.013	431.69
424.389	429.31
424.765	428.93
425.141	430.83
425.517	432.97
425.893	429.91
426.269	433.48
426.645	432.94
427.021	436.26
427.397	440.93
427.772	441.67
428.148	439.26
428.524	441.7
428.899	439.84
429.275	441.57
429.651	444.94
430.026	447.57
430.401	450.88
430.777	450.13
431.152	450.22
431.527	450.27
431.903	450.23
432.278	449.85
432.653	449.82
433.028	453.04
433.403	455.1
433.778	459.27
434.153	461.45
434.528	462.07
434.903	461.81
435.278	466.77
435.653	473
436.027	475
436.402	475.45
436.777	473.45
437.151	469.75
437.526	471.89
437.9	473.09
438.275	474.24
438.649	474.11
439.023	476.42
439.398	477.94
439.772	474.83
440.146	478.17
440.52	479.58
440.895	484.63
441.269	491.63
441.643	493.94
442.017	492.73
442.391	493.26
442.765	493.1
443.138	494.14
443.512	495.99
443.886	496.67
444.26	498.41
444.633	500.01
445.007	497.95
445.38	500.09
445.754	499.7
446.127	503.94
446.501	503.87
446.874	502.4
447.248	504.96
447.621	506.68
447.994	507.79
448.367	508.95
448.741	510.42
449.114	508.83
449.487	511.38
449.86	510.9
450.233	512.82
450.606	513.2
450.978	516.18
451.351	517.22
451.724	516.18
452.097	515.9
452.469	516.78
452.842	518.91
453.215	519.13
453.587	522.7
453.96	522.29
454.332	522.82
454.704	526.1
455.077	526.97
455.449	530.74
455.821	530.08
456.194	535.6
456.566	533.93
456.938	538.46
457.31	539.56
457.682	543.43
458.054	546.03
458.426	550.45
458.798	552.36
459.17	556.17
459.541	555.33
459.913	552.81
460.285	554.85
460.656	555.91
461.028	554.09
461.399	557.7
461.771	559.01
462.142	560.62
462.514	564.71
462.885	567.07
463.256	572.71
463.628	577.15
463.999	581.86
464.37	590.1
464.741	591.41
465.112	591.13
465.483	593.38
465.854	593.31
466.225	593.93
466.596	594.62
466.967	596.36
467.338	598.43
467.708	603.78
468.079	606.78
468.45	609.1
468.82	608.58
469.191	611.29
469.561	612.37
469.932	617.53
470.302	614.09
470.673	619.9
471.043	621.95
471.413	627.47
471.783	633.95
472.154	638.93
472.524	644.43
472.894	652.23
473.264	656.1
473.634	661.55
474.004	662.54
474.374	671.18
474.743	673.1
475.113	677.51
475.483	684.18
475.853	690.88
476.222	694.55
476.592	704.32
476.961	701.92
477.331	706.13
477.7	711.03
478.07	723.08
478.439	726.73
478.808	734.32
479.178	735.35
479.547	743.24
479.916	748.42
480.285	762.64
480.654	765.6
481.023	772.97
481.392	777.99
481.761	784.41
482.13	792.39
482.499	800.62
482.867	805.49
483.236	818.1
483.605	829.75
483.973	838.88
484.342	852.3
484.71	859.33
485.079	880.85
485.447	957.99
485.816	1030.69
486.184	1066.24
486.552	1019.5
486.921	966.66
487.289	933.54
487.657	925.5
488.025	922.77
488.393	923.8
488.761	931.3
489.129	941.38
489.497	949.56
489.865	966.03
490.233	968.74
490.6	982.1
490.968	981.22
491.336	984.87
491.703	986.64
492.071	995.14
492.438	1003.75
492.806	1012.94
493.173	1028.31
493.541	1032.93
493.908	1038.45
494.275	1036.71
494.642	1038.95
495.01	1047.16
495.377	1049.81
495.744	1054.48
496.111	1070.22
496.478	1083.56
496.845	1087.99
497.211	1090.52
497.578	1093.92
497.945	1101.69
498.312	1119.29
498.678	1127.76
499.045	1141.39
499.412	1142.66
499.778	1143.01
500.145	1142.61
500.511	1147.73
500.878	1159.28
501.244	1172.63
501.61	1181.72
501.976	1181.95
502.343	1190.63
502.709	1200.42
503.075	1197.73
503.441	1200.1
503.807	1211.08
504.173	1209.52
504.539	1215.68
504.905	1222.17
505.27	1234.37
505.636	1237.81
506.002	1250.76
506.367	1260
506.733	1263.36
507.099	1258.37
507.464	1264.22
507.829	1269.81
508.195	1282.97
508.56	1286.99
508.926	1288.27
509.291	1295.24
509.656	1300.56
510.021	1308.88
510.386	1316.98
510.751	1325.04
511.116	1335.12
511.481	1336.88
511.846	1347.03
512.211	1351.12
512.576	1354.84
512.941	1358.01
513.305	1367.02
513.67	1375.29
514.035	1376.49
514.399	1388.86
514.764	1388.49
515.128	1400.01
515.493	1406.81
515.857	1411.64
516.221	1415.02
516.585	1422.51
516.95	1428.37
517.314	1436.5
517.678	1442.86
518.042	1449.77
518.406	1462.05
518.77	1465.25
519.134	1472.97
519.498	1482.54
519.862	1490.81
520.225	1490.8
520.589	1496
520.953	1503.93
521.316	1516.27
521.68	1519.39
522.043	1530.24
522.407	1534.75
522.77	1539.74
523.134	1558.29
523.497	1556.97
523.86	1567.2
524.223	1577.48
524.587	1586.11
524.95	1593.05
525.313	1601.5
525.676	1613.08
526.039	1617.13
526.402	1620.2
526.765	1639.39
527.127	1650.91
527.49	1663.44
527.853	1670.73
528.215	1669.51
528.578	1689.1
528.941	1693.22
529.303	1710.66
529.666	1712.41
530.028	1726.29
530.39	1734.47
530.753	1742.74
531.115	1749.99
531.477	1764.32
531.839	1771.29
532.201	1775.46
532.564	1795.22
532.926	1810.36
533.287	1832.64
533.649	1841.14
534.011	1851.83
534.373	1867.98
534.735	1876.76
535.097	1885.62
535.458	1900.08
535.82	1907.21
536.181	1911.81
536.543	1920.07
536.904	1914.52
537.266	1943.73
537.627	1967.27
537.988	1976.27
538.35	1993.51
538.711	2011.9
539.072	2026.17
539.433	2025.95
539.794	2043.42
540.155	2054.68
540.516	2063.44
540.877	2076.51
541.238	2094.2
541.599	2120.07
541.959	2140
542.32	2160.9
542.681	2180.42
543.041	2191.39
543.402	2201.61
543.762	2216.8
544.123	2226.34
544.483	2234.4
544.844	2252.71
545.204	2250.05
545.564	2263.97
545.924	2279.87
546.284	2288.42
546.644	2289.4
547.004	2279.72
547.364	2293.45
547.724	2309.56
548.084	2313.69
548.444	2332.38
548.804	2332.69
549.164	2340.22
549.523	2345.47
549.883	2348.44
550.242	2355.32
550.602	2369.09
550.961	2379.86
551.321	2382.37
551.68	2395.39
552.04	2403.16
552.399	2424.6
552.758	2435.58
553.117	2440.79
553.476	2466.73
553.835	2476.51
554.194	2493.37
554.553	2486.9
554.912	2489.46
555.271	2504.8
555.63	2516.91
555.989	2530.81
556.347	2544.49
556.706	2562.02
557.065	2559.27
557.423	2571.77
557.782	2590.32
558.14	2590.06
558.499	2600.27
558.857	2609.25
559.215	2622.59
559.573	2641.34
559.932	2651.84
560.29	2678.35
560.648	2682.99
561.006	2698.28
561.364	2701.13
561.722	2710.08
562.08	2730.04
562.438	2733
562.795	2751.91
563.153	2768.23
563.511	2775.25
563.868	2795.62
564.226	2801.14
564.583	2822.46
564.941	2828.6
565.298	2852.92
565.656	2854.38
566.013	2854.86
566.37	2876.08
566.727	2896.37
567.085	2928.29
567.442	2946.16
567.799	2976.9
568.156	2984.95
568.513	3012.07
568.87	3049.83
569.226	3098.34
569.583	3165.43
569.94	3202.02
570.297	3219.13
570.653	3210.74
571.01	3236.11
571.366	3294.12
571.723	3341.53
572.079	3338.77
572.436	3336.89
572.792	3332.58
573.148	3385.18
573.505	3432.93
573.861	3505.02
574.217	3515.08
574.573	3533.45
574.929	3528.06
575.285	3547.44
575.641	3580.88
575.997	3618.97
576.352	3638.52
576.708	3668.01
577.064	3716.22
577.42	3781.81
577.775	3856.72
578.131	3875.24
578.486	3847.96
578.842	3774.92
579.197	3790.65
579.552	3831.55
579.908	3903.23
580.263	3945.57
580.618	3896.72
580.973	3949.97
581.328	4105.18
581.683	4288.33
582.038	4343.73
582.393	4197.41
582.748	4060.68
583.103	3938.26
583.458	3863.33
583.812	3889.5
584.167	3968.03
584.522	4051.32
584.876	4113.77
585.231	4136.24
585.585	4137.96
585.939	4088.16
586.294	4052.26
586.648	4041.82
587.002	4032.27
587.356	4105.52
587.711	4204.49
588.065	4216.29
588.419	4227.01
588.773	4194.26
589.127	4146.48
589.48	4105.28
589.834	4054.05
590.188	4059.19
590.542	4073.49
590.895	4055.82
591.249	4105.37
591.603	4089.86
591.956	4117.68
592.309	4159.67
592.663	4208.49
593.016	4324.91
593.369	4380.63
593.723	4346.68
594.076	4318.16
594.429	4326.86
594.782	4373.88
595.135	4426.78
595.488	4459.47
595.841	4436.82
596.194	4375.62
596.547	4350.64
596.899	4339.38
597.252	4353.46
597.605	4394.6
597.957	4382.89
598.31	4401.09
598.662	4454.5
599.015	4470.36
599.367	4521.65
599.719	4508.9
600.072	4514.06
600.424	4515.58
600.776	4557.22
601.128	4601.11
601.48	4614.04
601.832	4622.56
602.184	4631.25
602.536	4652.14
602.888	4710.5
603.24	4792.32
603.592	4832
603.943	4814.12
604.295	4761.27
604.646	4707.82
604.998	4715.99
605.349	4773.44
605.701	4780.84
606.052	4779.82
606.404	4782.42
606.755	4785.29
607.106	4820.51
607.457	4822.37
607.808	4821.48
608.159	4814.24
608.51	4825.6
608.861	4860.97
609.212	4853.15
609.563	4895.8
609.914	4934.55
610.265	4960.53
610.615	5028.89
610.966	5042.95
611.316	5078.82
611.667	5135.01
612.017	5155
612.368	5077.36
612.718	5135.43
613.068	5137.55
613.419	5169.08
613.769	5179.08
614.119	5199.23
614.469	5223.72
614.819	5164.71
615.169	5145.72
615.519	5172.08
615.869	5203.01
616.219	5190.51
616.568	5160.13
616.918	5160.69
617.268	5194.55
617.617	5206.15
617.967	5220.1
618.316	5227.57
618.666	5215.84
619.015	5224.2
619.364	5229.82
619.714	5290.86
620.063	5330.89
620.412	5357.95
620.761	5342.55
621.11	5347.96
621.459	5305.78
621.808	5340.01
622.157	5419.72
622.506	5446.53
622.855	5488.36
623.203	5536.78
623.552	5545.21
623.901	5555.01
624.249	5525.87
624.598	5533.21
624.946	5535.21
625.295	5541.4
625.643	5516.7
625.991	5545.03
626.34	5555.04
626.688	5577.25
627.036	5608.24
627.384	5601.34
627.732	5656.92
628.08	5675.99
628.428	5655.44
628.776	5683.49
629.124	5722.47
629.471	5742.41
629.819	5770.65
630.167	5767.41
630.514	5780.37
630.862	5773.54
631.209	5789.17
631.557	5813.52
631.904	5815.65
632.251	5822.12
632.599	5787.21
632.946	5790.49
633.293	5855.28
633.64	5854.33
633.987	5876.56
634.334	5887.63
634.681	5901.48
635.028	5903.85
635.375	5918.55
635.722	5970.34
636.068	6008.88
636.415	6019.1
636.762	6046.72
637.108	6105.53
637.455	6105.61
637.801	6124.43
638.147	6167.6
638.494	6147.14
638.84	6205.01
639.186	6206.64
639.532	6207.86
639.878	6234.68
640.225	6269.21
640.571	6307.98
640.916	6343.56
641.262	6321.57
641.608	6284.07
641.954	6323.08
642.3	6359.09
642.645	6359.75
642.991	6362.97
643.337	6384.36
643.682	6392.3
644.028	6426.8
644.373	6471.75
644.718	6488.63
645.064	6509.11
645.409	6491.81
645.754	6528.8
646.099	6579.84
646.444	6588.17
646.789	6606.29
647.134	6588.48
647.479	6639.1
647.824	6661
648.169	6677.55
648.513	6727.79
648.858	6714.33
649.203	6740.49
649.547	6751.61
649.892	6746.07
650.236	6806.52
650.581	6824.55
650.925	6797.4
651.269	6777.01
651.613	6832.77
651.958	6867.15
652.302	6881.72
652.646	6855.16
652.99	6840.6
653.334	6888.23
653.678	6903.65
654.022	6936.82
654.365	6945.5
654.709	6970.93
655.053	7033.57
655.396	7240.99
655.74	9803.05
656.083	13775.34
656.427	16207.58
656.77	15751.32
657.114	11828.02
657.457	9075.06
657.8	7850.93
658.143	7406.12
658.486	7230.96
658.83	7191.16
659.173	7152.07
659.516	7188.18
659.858	7204.31
660.201	7191.42
660.544	7195.64
660.887	7215.02
661.229	7278.19
661.572	7278.84
661.915	7280.82
662.257	7260.6
662.6	7299.88
662.942	7262.88
663.284	7278.23
663.627	7322.9
663.969	7311.15
664.311	7318.71
664.653	7268.57
664.995	7296.17
665.337	7370.85
665.679	7377.17
666.021	7391.81
666.363	7359.91
666.705	7398.05
667.046	7431.16
667.388	7409.07
667.73	7393.94
668.071	7402.31
668.413	7425.1
668.754	7421.97
669.096	7424.07
669.437	7476.47
669.778	7496.95
670.119	7533.97
670.461	7476.46
670.802	7515.7
671.143	7532.09
671.484	7617.63
671.825	7650.84
672.165	7642.1
672.506	7635.85
672.847	7627.43
673.188	7679.21
673.528	7681.56
673.869	7596.25
674.21	7601.55
674.55	7621.05
674.89	7641.02
675.231	7657.16
675.571	7630.55
675.911	7626.11
676.252	7664.99
676.592	7721.01
676.932	7705.92
677.272	7678.75
677.612	7688.97
677.952	7714.9
678.292	7721.22
678.631	7726.82
678.971	7713.16
679.311	7772.7
679.651	7764.98
679.99	7805.24
680.33	7845.38
680.669	7830.12
681.009	7788.83
681.348	7804.26
681.687	7849.25
682.026	7902.94
682.366	7859.84
682.705	7897.01
683.044	7922.42
683.383	7941.22
683.722	8006.26
684.061	7986.64
684.4	7990.5
684.738	7992.45
685.077	8022.16
685.416	8023.82
685.754	8074.84
686.093	8091.67
686.431	8112.35
686.77	8043.03
687.108	8026.07
687.447	8009.38
687.785	8059.38
688.123	8046.85
688.461	8056.66
688.799	7989.32
689.137	8039.92
689.475	8100.27
689.813	8045.8
690.151	8022.52
690.489	8024.91
690.827	8056.48
691.164	8020.85
691.502	8054.69
691.84	8071.87
692.177	8116.95
692.515	8158.34
692.852	8133.7
693.189	8190.18
693.527	8212.26
693.864	8254.48
694.201	8281.31
694.538	8259.88
694.875	8273.9
695.212	8219.15
695.549	8213.65
695.886	8233.44
696.223	8235.29
696.56	8247.3
696.897	8255.47
697.233	8300.15
697.57	8298.64
697.906	8344.34
698.243	8322.78
698.579	8315.61
698.916	8318.14
699.252	8329.78
699.588	8381.91
699.924	8435.69
700.261	8460.81
700.597	8465.89
700.933	8431.14
701.269	8374.69
701.605	8380.36
701.941	8342.31
702.276	8330.39
702.612	8274.77
702.948	8311.72
703.283	8380.63
703.619	8418.62
703.954	8425.28
704.29	8399.92
704.625	8395.39
704.961	8365.71
705.296	8444.76
705.631	8458.01
705.966	8483.93
706.301	8464.86
706.637	8427.63
706.972	8513.31
707.306	8510.86
707.641	8524.34
707.976	8480.97
708.311	8515.94
708.646	8599.1
708.98	8602.12
709.315	8563.28
709.649	8557.55
709.984	8631.87
710.318	8596.34
710.653	8590.65
710.987	8549.82
711.321	8556.41
711.655	8553.23
711.989	8537.05
712.324	8520.14
712.658	8512.07
712.992	8541.65
713.325	8548.4
713.659	8578.61
713.993	8535.78
714.327	8539.86
714.66	8612.51
714.994	8593.95
715.328	8609.34
715.661	8612.22
715.994	8637.56
716.328	8576.26
716.661	8616.72
716.994	8670.3
717.328	8679.5
717.661	8620.84
717.994	8579.96
718.327	8605.79
718.66	8595.84
718.993	8616.87
719.325	8588.07
719.658	8520.28
719.991	8515.12
720.324	8543.64
720.656	8512.3
720.989	8509.31
721.321	8533.44
721.654	8580.23
721.986	8504.37
722.318	8513.42
722.651	8554.34
722.983	8541.01
723.315	8627.16
723.647	8603.46
723.979	8616.81
724.311	8626.38
724.643	8611.44
724.975	8594.52
725.307	8535.4
725.638	8621.86
725.97	8668.16
726.302	8757.76
726.633	8704.53
726.965	8676.81
727.296	8600.21
727.628	8632.02
727.959	8623.98
728.29	8635.7
728.621	8579.15
728.952	8599.57
729.284	8561.54
729.615	8558.65
729.945	8524.48
730.276	8563.64
730.607	8585.76
730.938	8540.83
731.269	8572.94
731.599	8617.58
731.93	8620.16
732.261	8561.4
732.591	8571.63
732.922	8595.23
733.252	8478.44
733.582	8431.48
733.912	8486.84
734.243	8515.86
734.573	8468.24
734.903	8500.29
735.233	8392.56
735.563	8405.97
735.893	8465.47
736.223	8420.68
736.552	8466.69
736.882	8505.27
737.212	8487.6
737.541	8423.64
737.871	8432.46
738.2	8354.92
738.53	8326.57
738.859	8315.85
739.188	8330.19
739.518	8325.21
739.847	8284.1
740.176	8258.6
740.505	8237.95
740.834	8211.24
741.163	8225.9
741.492	8148.75
741.821	8109.19
742.15	8134.85
742.478	8156.33
742.807	8116.48
743.136	8151.14
743.464	8085.89
743.793	8025.93
744.121	8034.09
744.449	7986.77
744.778	8001.82
745.106	8060.2
745.434	8033.75
745.762	7967.12
746.09	7944.66
746.418	7954.85
746.746	7943.73
747.074	7894.71
747.402	7949.52
747.73	7953.15
748.057	7972.25
748.385	7946.61
748.712	7931.99
749.04	7860.51
749.367	7871.48
749.695	7809.34
750.022	7814.72
750.349	7789.12
750.677	7829.19
751.004	7889.75
751.331	7866.31
751.658	7885.45
751.985	7818.13
752.312	7688.42
752.639	7672.11
752.966	7692.41
753.292	7617.08
753.619	7657.61
753.946	7663.51
754.272	7644.53
754.599	7694.12
754.925	7663.32
755.251	7610.24
755.578	7635.54
755.904	7606.32
756.23	7566.13
756.556	7568.09
756.882	7625.18
757.208	7592.98
757.534	7589.39
757.86	7591.28
758.186	7616.25
758.512	7572.13
758.838	7526.8
759.163	7447.86
759.489	7472.14
759.814	7463.43
760.14	7504.32
760.465	7503.04
760.791	7415.53
761.116	7345.09
761.441	7344.93
761.766	7414.63
762.092	7314.86
762.417	7235.71
762.742	7210.16
763.066	7226.23
763.391	7265.58
763.716	7277.21
764.041	7262.29
764.366	7210.28
764.69	7198.65
765.015	7219.65
765.339	7256.54
765.664	7264.83
765.988	7213.75
766.312	7190.32
766.637	7101.13
766.961	7049.06
767.285	7049.83
767.609	7011.84
767.933	6938.75
768.257	7015.33
768.581	7045.22
768.905	7118.55
769.229	7075.88
769.552	7062.95
769.876	7081.12
770.2	7033.47
770.523	7002.39
770.847	6960.49
771.17	6966.03
771.493	6999.31
771.817	6984.97
772.14	6883.4
772.463	6821.91
772.786	6809.89
773.109	6767.03
773.432	6780.57
773.755	6702.62
774.078	6684.22
774.401	6705.21
774.724	6688.57
775.046	6672.64
775.369	6626.38
775.692	6571.78
776.014	6564.77
776.336	6552.01
776.659	6558.86
776.981	6560.64
777.303	6526.92
777.626	6471.64
777.948	6458.57
778.27	6467.01
778.592	6496.25
778.914	6503
779.236	6493.06
779.557	6545.61
779.879	6564.2
780.201	6515.31
780.523	6525.48
780.844	6471.35
781.166	6521.39
781.487	6535.11
781.809	6513.37
782.13	6521.5
782.451	6477.64
782.772	6493.94
783.094	6481.04
783.415	6526.83
783.736	6535.37
784.057	6563.42
784.378	6510.45
784.698	6519.77
785.019	6561.95
785.34	6473.17
785.661	6500.56
785.981	6559.18
786.302	6596.86
786.622	6579.33
786.943	6606.71
787.263	6583.58
787.583	6616.23
787.903	6643.21
788.224	6651.41
788.544	6653.22
788.864	6625.05
789.184	6716.69
789.504	6700.98
789.824	6683.43
790.143	6715.81
790.463	6676.35
790.783	6632.73
791.102	6650.74
791.422	6712.02
791.741	6653.76
792.061	6585.58
792.38	6630.19
792.699	6585.85
793.019	6585.54
793.338	6601.06
793.657	6620.17
793.976	6666.98
794.295	6674.36
794.614	6718.71
794.933	6692.9
795.252	6707.01
795.57	6691.17
795.889	6679.92
796.208	6703.86
796.526	6615.5
796.845	6597.28
797.163	6572.43
797.482	6585.54
797.8	6577.27
798.118	6565.8
798.436	6575.35
798.754	6566.97
799.073	6490.64
799.391	6485.39
799.708	6536.97
800.026	6524.76
800.344	6472.23
800.662	6427.54
800.98	6421.51
801.297	6377.66
801.615	6414.81
801.932	6469.03
802.25	6421.9
802.567	6390.65
802.884	6368.16
803.202	6339.45
803.519	6297.76
803.836	6288.91
804.153	6306.17
804.47	6287.36
804.787	6169.86
805.104	6138.85
805.421	6151.81
805.737	6115.09
806.054	6136.14
806.371	6218.31
806.687	6267.73
807.004	6191.65
807.32	6185.07
807.637	6175.37
807.953	6171.22
808.269	6159.59
808.585	6188.16
808.902	6120.61
809.218	6077.45
809.534	6092.86
809.85	6057.4
810.165	6022.16
810.481	6026.14
810.797	5957.54
811.113	5916.21
811.428	5869.51
811.744	5904.81
812.059	5927.9
812.375	5878.4
812.69	5843.29
813.006	5817.43
813.321	5829.4
813.636	5822.72
813.951	5871.96
814.266	5863.33
814.581	5830.04
814.896	5817.36
815.211	5774.94
815.526	5768.64
815.841	5738.4
816.155	5708.3
816.47	5685.03
816.784	5742.79
817.099	5702.36
817.413	5637.31
817.728	5648.87
818.042	5653.86
818.356	5692.09
818.67	5639.2
818.985	5611.37
819.299	5563.37
819.613	5552.37
819.926	5504.7
820.24	5520.24
820.554	5537.79
820.868	5571.57
821.182	5525.16
821.495	5525.18
821.809	5396.41
822.122	5404.1
822.436	5435.2
822.749	5449.31
823.062	5413.34
823.376	5404.15
823.689	5341.41
824.002	5327.43
824.315	5335.79
824.628	5381.65
824.941	5349.82
825.254	5313.3
825.566	5263.47
825.879	5245.05
826.192	5204.89
826.504	5142.6
826.817	5148.94
827.129	5204.48
827.442	5177.76
827.754	5156.36
828.066	5130.76
828.379	5093.1
828.691	5111.8
829.003	5105.9
829.315	5116.17
829.627	5085.11
829.939	5039.32
830.251	5055.34
830.562	5025.38
830.874	5051.15
831.186	5017.21
831.497	5001.76
831.809	4985.54
832.12	4938.61
832.432	4885.29
832.743	4904.2
833.054	4938.92
833.365	4975.69
833.676	4985.83
833.988	4986.43
834.299	4929.66
834.61	4886.2
834.92	4856.7
835.231	4865.03
835.542	4843.94
835.853	4800.14
836.163	4806.35
836.474	4772.37
836.784	4716.08
837.095	4687.79
837.405	4650.62
837.715	4641.2
838.026	4642.59
838.336	4659.08
838.646	4631.01
838.956	4586.38
839.266	4547.63
839.576	4485.12
839.886	4495.01
840.195	4522.04
840.505	4510.75
840.815	4498
841.124	4493.18
841.434	4479.14
841.743	4457.07
842.053	4476.96
842.362	4475.7
842.671	4462.22
842.981	4470.64
843.29	4407.69
843.599	4373.96
843.908	4339.01
844.217	4319.8
844.526	4351.82
844.835	4381.74
845.143	4309.77
845.452	4233.36
845.761	4219.55
846.069	4192.8
846.378	4222.85
846.686	4203.52
846.995	4227.91
847.303	4217.57
847.611	4199.86
847.919	4144.61
848.227	4108.04
848.535	4073.52
848.843	4115.33
849.151	4106.13
849.459	4122.74
849.767	4075.15
850.075	4029.45
850.382	3971.56
850.69	3961.65
850.998	3952.43
851.305	3943.89
851.612	3950.61
851.92	3968.74
852.227	3976.79
852.534	3963.87
852.841	3895.9
853.148	3869.89
853.455	3934.54
853.762	3964.61
854.069	3968.47
854.376	3944.75
854.683	3893.91
854.99	3859.28
855.296	3824.26
855.603	3797.14
855.909	3783.25
856.216	3747.67
856.522	3738.84
856.828	3734.25
857.135	3723.38
857.441	3682.34
857.747	3654.27
858.053	3664.01
858.359	3633.03
858.665	3667.63
858.971	3677.23
859.276	3678.71
859.582	3653.31
859.888	3624.84
860.193	3586.34
860.499	3580.08
860.804	3596.57
861.11	3580.75
861.415	3553.66
861.72	3548.31
862.026	3539.49
862.331	3523.96
862.636	3499.58
862.941	3492.39
863.246	3491.54
863.551	3487.48
863.855	3480.88
864.16	3454
864.465	3418.88
864.769	3384.22
865.074	3333.07
865.378	3298.67
865.683	3286.2
865.987	3299.61
866.291	3270.62
866.596	3287
866.9	3236.94
867.204	3215.44
867.508	3188.6
867.812	3183.87
868.116	3195.22
868.42	3207.5
868.723	3200.5
869.027	3192.36
869.331	3164.82
869.634	3130.28
869.938	3079.08
870.241	3082.95
870.544	3083.82
870.848	3094.48
871.151	3085.81
871.454	3051.66
871.757	3026.14
872.06	2996.63
872.363	2976.77
872.666	2968.15
872.969	2948.66
873.272	2945.63
873.574	2931.25
873.877	2905.45
874.18	2888.59
874.482	2871.2
874.785	2864.36
875.087	2862.58
875.389	2869.63
875.692	2868.41
875.994	2876.34
876.296	2863.2
876.598	2834.8
876.9	2818.61
877.202	2803.79
877.504	2779.91
877.805	2764.1
878.107	2764.07
878.409	2743.55
878.71	2740.87
879.012	2724.99
879.313	2681.29
879.615	2683.38
879.916	2666.57
880.217	2678.19
880.518	2685.03
880.82	2708.34
881.121	2700.78
881.422	2690.55
881.723	2657.73
882.023	2620.45
882.324	2597.99
882.625	2571.91
882.926	2560.97
883.226	2568.65
883.527	2528.39
883.827	2507.69
884.128	2475.59
884.428	2466.87
884.728	2452.77
885.028	2454.82
885.328	2473.42
885.629	2465.88
885.929	2455.31
886.228	2450.87
886.528	2423.26
886.828	2394.65
887.128	2376.34
887.427	2348.39
887.727	2328.5
888.027	2319.99
888.326	2324.24
888.625	2333.3
888.925	2312.4
889.224	2309.11
889.523	2285.92
889.822	2272.42
890.121	2271.34
890.42	2267.18
890.719	2268.85
891.018	2259.47
891.317	2266.47
891.616	2251.68
891.914	2237.15
892.213	2228.13
892.512	2219.74
892.81	2206.83
893.108	2204.51
893.407	2202.11
893.705	2204.41
894.003	2202.13
894.301	2201.8
894.599	2192.11
894.897	2187.61
895.195	2180.24
895.493	2168.29
895.791	2178.29
896.089	2178.7
896.386	2179.12
896.684	2183.63
896.981	2182.24
897.279	2184.7
897.576	2189.66
897.874	2159.8
898.171	2153.68
898.468	2149.42
898.765	2148.45
899.062	2165.61
899.359	2164.38
899.656	2159.93
899.953	2150.16
900.25	2149.78
900.547	2142.92
900.843	2128.54
901.14	2122.26
901.436	2121.34
901.733	2134.8
902.029	2146.07
902.325	2144.59
902.622	2109.66
902.918	2104.09
903.214	2101.15
903.51	2089.39
903.806	2092.97
904.102	2088.8
904.398	2093.17
904.694	2089.43
904.989	2104.31
905.285	2099.56
905.581	2093.63
905.876	2096.12
906.171	2073.85
906.467	2062.86
906.762	2070.78
907.057	2073.97
907.353	2082.25
907.648	2079.74
907.943	2083.27
908.238	2066.42
908.533	2040.16
908.827	2023.04
909.122	2008.81
909.417	2016.43
909.711	2029.33
910.006	2027.95
910.301	2018.43
910.595	2024.24
910.889	2031.92
911.184	2002.24
911.478	1993.37
911.772	2003.63
912.066	2000.69
912.36	1998.16
912.654	1980.33
912.948	1974.18
913.242	1985.58
913.536	1963.94
913.829	1942.82
914.123	1923.04
914.416	1898.7
914.71	1897.88
915.003	1908.71
915.297	1912.05
915.59	1894.93
915.883	1880.44
916.176	1870.5
916.469	1856.37
916.762	1851.63
917.055	1839.2
917.348	1832.17
917.641	1839.68
917.934	1833.11
918.226	1825.96
918.519	1815.88
918.811	1816.94
919.104	1806.05
919.396	1780.15
919.689	1761.41
919.981	1738.88
920.273	1731.66
920.565	1729.82
920.857	1724.73
921.149	1723.94
921.441	1719.89
921.733	1706.43
922.025	1675.4
922.316	1656.17
922.608	1650.62
922.9	1638.93
923.191	1639.49
923.483	1643.19
923.774	1628.96
924.065	1624.14
924.357	1615.83
924.648	1600.03
924.939	1588.48
925.23	1575.76
925.521	1565.19
925.812	1557.26
926.102	1560.44
926.393	1567.52
926.684	1582.16
926.975	1576.61
927.265	1561.97
927.556	1550.6
927.846	1530.85
928.136	1518.39
928.427	1504.12
928.717	1495.53
929.007	1493.08
929.297	1485.69
929.587	1484.24
929.877	1483.52
930.167	1476.63
930.457	1468.16
930.746	1444.35
931.036	1429.69
931.325	1413.21
931.615	1405.29
931.904	1410.17
932.194	1395.54
932.483	1393.13
932.772	1393.14
933.062	1387.78
933.351	1375.37
933.64	1350.46
933.929	1337.32
934.218	1323.55
934.506	1317.68
934.795	1319.73
935.084	1324.32
935.372	1326.67
935.661	1320.7
935.949	1306.89
936.238	1294.8
936.526	1280.55
936.815	1268.1
937.103	1252.47
937.391	1245.75
937.679	1241.52
937.967	1237.32
938.255	1235.31
938.543	1233.25
938.831	1222.14
939.118	1219.46
939.406	1210.76
939.693	1194.81
939.981	1181.43
940.268	1172.64
940.556	1166.25
940.843	1165.72
941.13	1168.57
941.418	1167.43
941.705	1164.17
941.992	1152.67
942.279	1142.42
942.566	1131.27
942.852	1114.96
943.139	1105.07
943.426	1095.38
943.712	1095.04
943.999	1094.47
944.285	1096.96
944.572	1090.81
944.858	1086.84
945.144	1075.25
945.431	1060.27
945.717	1047.62
946.003	1039.71
946.289	1035.25
946.575	1029.99
946.861	1023.02
947.146	1021.18
947.432	1018.62
947.718	1013.08
948.003	1014.11
948.289	1009.57
948.574	1000.13
948.86	984.89
949.145	977.16
949.43	967.36
949.715	961.39
950	955.01
950.285	953.95
950.57	954.09
950.855	950.43
951.14	942.52
951.425	932.85
951.709	923.88
951.994	912.55
952.278	905.29
952.563	899.41
952.847	897.86
953.132	895.83
953.416	893.45
953.7	890.2
953.984	889.69
954.268	883.5
954.552	879.83
954.836	870.04
955.12	862.55
955.404	860.8
955.687	851.42
955.971	852.77
956.254	851.95
956.538	851.61
956.821	851.72
957.105	845.91
957.388	842.55
957.671	832.86
957.954	824.15
958.237	818.39
958.52	809.7
958.803	800.62
959.086	797.89
959.369	793.53
959.652	790.01
959.934	788.09
960.217	783.96
960.499	781.52
960.782	774.88
961.064	770.48
961.346	764.75
961.629	758.41
961.911	751.28
962.193	750.94
962.475	745.48
962.757	744.29
963.039	742.9
963.32	740.1
963.602	733.7
963.884	728.34
964.165	722.85
964.447	722.66
964.728	709.81
965.01	702.45
965.291	701.39
965.572	700.01
965.853	697.98
966.134	696.41
966.415	694.28
966.696	691.37
966.977	681.08
967.258	678.74
967.539	673.72
967.819	668.91
968.1	665.01
968.38	661.82
968.661	657.72
968.941	651.46
969.222	653.78
969.502	652.35
969.782	650.88
970.062	646.59
970.342	642.66
970.622	636.65
970.902	633.84
971.182	628.65
971.462	624.6
971.741	621.16
972.021	614.27
972.3	612.95
972.58	611.46
972.859	610.35
973.138	611.25
973.418	608.34
973.697	605.57
973.976	599.58
974.255	592.22
974.534	586.17
974.813	582.45
975.092	578.19
975.37	578.76
975.649	576.53
975.928	579.17
976.206	577.3
976.485	575.14
976.763	571.01
977.041	568.65
977.32	564.87
977.598	558.95
977.876	556.15
978.154	553.11
978.432	547.28
978.71	546.41
978.988	544.34
979.265	541.7
979.543	544.4
979.821	536.24
980.098	537.37
980.376	531.86
980.653	528.38
980.93	524.28
981.208	521.05
981.485	518.92
981.762	512.16
982.039	514.36
982.316	509.96
982.593	511.27
982.87	508.87
983.146	506.09
983.423	502.19
983.7	501.22
983.976	498.14
984.253	493.51
984.529	492.24
984.805	488.04
985.082	486.03
985.358	485.85
985.634	483.1
985.91	482.61
986.186	481.6
986.462	478.8
986.738	478.8
987.013	475.52
987.289	475.02
987.565	474.87
987.84	471.21
988.116	468.66
988.391	465.27
988.666	463.43
988.942	460.44
989.217	459.22
989.492	458.62
989.767	456.93
990.042	452.97
990.317	452.72
990.592	451
990.866	449.04
991.141	446.33
991.416	445.76
991.69	444.77
991.964	442.52
992.239	438.71
992.513	438.1
992.787	437.53
993.062	435.88
993.336	435.76
993.61	431.38
993.884	431.45
994.158	429.66
994.431	429.4
994.705	426.45
994.979	426.07
995.252	425.04
995.526	423.59
995.799	420.2
996.073	417.99
996.346	418.94
996.619	416.64
996.892	415.46
997.165	413.31
997.438	414.18
997.711	411.72
997.984	409.23
998.257	408.81
998.53	409.07
998.802	405.23
999.075	406.01
999.347	404.82
999.62	403.31
999.892	402.13
1000.165	403.6
1000.437	400.29
1000.709	400.33
1000.981	399.28
1001.253	396.93
1001.525	395.03
1001.797	394.15
1002.068	391.83
1002.34	392.49
1002.612	391.84
1002.883	390.12
1003.155	388.69
1003.426	389.98
1003.698	389.08
1003.969	388.27
1004.24	388.61
1004.511	385.85
1004.782	386.49
1005.053	384.82
1005.324	384.14
1005.595	382.54
1005.866	381.42
1006.136	380.77
1006.407	381.24
1006.678	379.66
1006.948	378.42
1007.218	376.74
1007.489	378.47
1007.759	376.83
1008.029	376.04
1008.299	376.11
1008.569	375.36
1008.839	373.52
1009.109	372.47
1009.379	370.67
1009.649	371.35
1009.918	370.14
1010.188	370.13
1010.458	368.61
1010.727	370.59
1010.996	369.74
1011.266	367.33
1011.535	368.84
1011.804	366.15
1012.073	368.31
1012.342	367.71
1012.611	364.91
1012.88	365.38
1013.149	365.63
1013.417	364.63
1013.686	363.52
1013.955	360.88
1014.223	363.54
1014.492	362.45
1014.76	363.09
1015.028	362.23
1015.296	361.82
1015.565	361.36
1015.833	359.84
1016.101	360.79
1016.368	360.13
1016.636	357.38
1016.904	360.33
1017.172	359.56
1017.439	357.9
1017.707	357.08
1017.974	356.66
1018.242	358.38
1018.509	356.9
1018.776	359.67
1019.044	357.35
1019.311	356.2
1019.578	355.36
1019.845	355.15
1020.112	356.34
1020.378	356.34
1020.645	356.34
