Data from 190717_Ar_26K_dark_FLMS138901_11-55-49-453.txt Node
Date: Wed Jul 17 11:55:49 EDT 2019
User: pSAM
Spectrometer: FLMS13890
Trigger mode: 0
Integration Time (sec): 5.000000E-3
Scans to average: 1000
Electric dark correction enabled: true
Nonlinearity correction enabled: false
Boxcar width: 0
XAxis mode: Wavelengths
Number of Pixels in Spectrum: 2048
>>>>>Begin Spectral Data<<<<<
342.097	-64.21
342.483	-64.21
342.868	-64.21
343.254	-102.4
343.639	-105.3
344.025	-105.01
344.41	-98.76
344.796	-92.64
345.181	-80.11
345.567	-68.14
345.952	-52.7
346.337	-34.68
346.722	-19.07
347.107	0.08
347.493	18.68
347.878	40.24
348.263	59.46
348.648	78.51
349.033	99.93
349.418	118.93
349.802	135.28
350.187	155.55
350.572	172.44
350.957	191
351.342	204.71
351.726	220.74
352.111	233.57
352.495	247.63
352.88	260.29
353.264	272.06
353.649	281.89
354.033	291.91
354.418	300.85
354.802	309.74
355.186	315.22
355.57	320.71
355.955	324.55
356.339	329.78
356.723	331.82
357.107	335.15
357.491	352.15
357.875	339.65
358.259	340.99
358.643	340.4
359.026	342.25
359.41	340.08
359.794	339.76
360.178	341.57
360.561	338.09
360.945	335.89
361.329	335.96
361.712	332.26
362.096	332.58
362.479	329.68
362.862	328.13
363.246	330.24
363.629	327.21
364.012	325.46
364.396	322.26
364.779	321.82
365.162	321.11
365.545	319.76
365.928	317.21
366.311	315.79
366.694	315.72
367.077	314
367.46	311.55
367.843	312.4
368.226	310.79
368.608	310.21
368.991	310.34
369.374	309.88
369.756	310.79
370.139	308.9
370.521	307.98
370.904	310.61
371.286	309.47
371.669	309.91
372.051	311.13
372.433	310.37
372.816	309.8
373.198	310.67
373.58	310.98
373.962	310.37
374.344	312.84
374.726	313.11
375.108	315.12
375.49	314.48
375.872	314.23
376.254	316.79
376.636	315.16
377.018	316.51
377.399	315.58
377.781	316.83
378.163	318.13
378.544	319.37
378.926	318.12
379.307	318.33
379.689	318.59
380.07	321.14
380.452	321.45
380.833	321.7
381.214	319.75
381.596	322.86
381.977	321.25
382.358	323.01
382.739	325.36
383.12	323.62
383.501	323.68
383.882	323.87
384.263	323.5
384.644	323.62
385.025	325.91
385.406	328.37
385.787	327.6
386.167	326.72
386.548	326.35
386.929	327.14
387.309	328.1
387.69	327.19
388.07	327.57
388.451	330.2
388.831	327.11
389.211	328.48
389.592	330.61
389.972	329.16
390.352	329.4
390.733	328.94
391.113	329.42
391.493	331.21
391.873	330.13
392.253	331.61
392.633	333.03
393.013	331.25
393.393	332.67
393.772	332.31
394.152	331.89
394.532	332.09
394.912	333.4
395.291	332.65
395.671	333.79
396.05	333.46
396.43	334.27
396.809	334.83
397.189	333.71
397.568	334.84
397.948	335.49
398.327	337.07
398.706	335.25
399.085	337.02
399.465	337.35
399.844	337.21
400.223	339.11
400.602	337.17
400.981	338.28
401.36	337.67
401.739	339.59
402.117	339.08
402.496	340.31
402.875	339.47
403.254	338.63
403.632	340.78
404.011	341.82
404.39	344.01
404.768	344.45
405.147	344.6
405.525	343.17
405.903	342.54
406.282	344.4
406.66	342.53
407.038	344.49
407.417	345.13
407.795	344.45
408.173	345.47
408.551	341.61
408.929	343.17
409.307	343.43
409.685	342.39
410.063	344.53
410.441	344.59
410.818	345.71
411.196	346.65
411.574	345.89
411.952	344.72
412.329	347.4
412.707	347.37
413.084	346.63
413.462	348.71
413.839	348.72
414.217	346.76
414.594	347.75
414.971	347.63
415.349	347.05
415.726	350.41
416.103	349.37
416.48	346.81
416.857	349.73
417.234	349.83
417.611	349.4
417.988	350.04
418.365	351.75
418.742	353.23
419.119	350.69
419.495	351.22
419.872	351.4
420.249	359.78
420.625	349.54
421.002	351.94
421.379	351.61
421.755	353.46
422.131	353.05
422.508	353.09
422.884	353.34
423.26	352.4
423.637	354
424.013	352.29
424.389	352.49
424.765	352.65
425.141	354.23
425.517	353.76
425.893	355.84
426.269	354.75
426.645	354.88
427.021	355.37
427.397	355.93
427.772	355.91
428.148	355.47
428.524	356.02
428.899	356.94
429.275	353.5
429.651	357.35
430.026	357.22
430.401	357.74
430.777	357.89
431.152	356
431.527	356.53
431.903	357.66
432.278	358.39
432.653	357.39
433.028	359.15
433.403	360.76
433.778	360.31
434.153	360.71
434.528	360.03
434.903	364.85
435.278	373.18
435.653	382.85
436.027	384.13
436.402	378.99
436.777	372.73
437.151	368.33
437.526	361.57
437.9	361.8
438.275	361.81
438.649	360.98
439.023	361.77
439.398	362.78
439.772	361.17
440.146	362.55
440.52	363.44
440.895	362.26
441.269	360.8
441.643	362.08
442.017	362.74
442.391	362.16
442.765	361.21
443.138	361.03
443.512	362.78
443.886	365.11
444.26	363.37
444.633	363.1
445.007	363.19
445.38	363.45
445.754	364.97
446.127	363.09
446.501	364.53
446.874	363.17
447.248	363.8
447.621	365.35
447.994	365.3
448.367	368.2
448.741	365.74
449.114	363.14
449.487	364.73
449.86	364.74
450.233	365.63
450.606	367.8
450.978	363.53
451.351	384.56
451.724	366.12
452.097	368.6
452.469	365.28
452.842	365.35
453.215	365.82
453.587	365.57
453.96	364.71
454.332	366.22
454.704	366.58
455.077	365.87
455.449	365.17
455.821	367.85
456.194	368.33
456.566	365.62
456.938	365.68
457.31	366.14
457.682	366.54
458.054	367.27
458.426	367.2
458.798	369.06
459.17	367.69
459.541	367.46
459.913	367.97
460.285	368.37
460.656	367.81
461.028	365.97
461.399	367.19
461.771	367.97
462.142	368.09
462.514	366.45
462.885	369.37
463.256	367.47
463.628	367.05
463.999	366.36
464.37	368.65
464.741	369.37
465.112	370.19
465.483	368.73
465.854	368.86
466.225	370.86
466.596	367.27
466.967	368.6
467.338	368.79
467.708	368.14
468.079	369.67
468.45	369.32
468.82	368.51
469.191	367.63
469.561	371.14
469.932	368.34
470.302	370.21
470.673	370.19
471.043	368.44
471.413	369.6
471.783	370.38
472.154	368.72
472.524	367.49
472.894	369.7
473.264	368.12
473.634	369.87
474.004	367.21
474.374	369.76
474.743	370.01
475.113	367.84
475.483	368.07
475.853	371.6
476.222	369.2
476.592	370.67
476.961	370.4
477.331	369.91
477.7	370.45
478.07	369.49
478.439	369.88
478.808	369.86
479.178	368.98
479.547	369.04
479.916	371.03
480.285	368.35
480.654	370.38
481.023	371.75
481.392	370.64
481.761	370.4
482.13	370.42
482.499	371.27
482.867	369.55
483.236	372.9
483.605	373.25
483.973	377.05
484.342	375.11
484.71	378.36
485.079	378.18
485.447	379.76
485.816	383.89
486.184	382.96
486.552	383.27
486.921	384.89
487.289	383.76
487.657	385.88
488.025	385.8
488.393	382.74
488.761	384.24
489.129	385.91
489.497	383.48
489.865	383.59
490.233	384.66
490.6	382.94
490.968	382.46
491.336	384.47
491.703	382.61
492.071	381.82
492.438	381.15
492.806	381.89
493.173	382.7
493.541	381.86
493.908	380.45
494.275	380.62
494.642	380.87
495.01	380.28
495.377	378.79
495.744	376.65
496.111	377.39
496.478	380.32
496.845	377.97
497.211	378.35
497.578	376.28
497.945	379.3
498.312	378.05
498.678	377.12
499.045	373.97
499.412	375.79
499.778	373.98
500.145	373.69
500.511	373.94
500.878	372.4
501.244	371.92
501.61	369.55
501.976	371.49
502.343	372.74
502.709	369.81
503.075	371.13
503.441	371.58
503.807	370.55
504.173	370.16
504.539	370.44
504.905	370.96
505.27	368.82
505.636	370.87
506.002	370.32
506.367	371.14
506.733	368.32
507.099	368.32
507.464	370.38
507.829	369.21
508.195	370
508.56	370.2
508.926	370.87
509.291	370.11
509.656	369.42
510.021	369.57
510.386	370.53
510.751	368.65
511.116	368.97
511.481	370.5
511.846	369.85
512.211	368.5
512.576	369.92
512.941	370.32
513.305	371.18
513.67	368.98
514.035	371.18
514.399	370.4
514.764	369.53
515.128	369.05
515.493	370.36
515.857	367.45
516.221	369.41
516.585	370.31
516.95	368.04
517.314	368.73
517.678	367.83
518.042	370.87
518.406	372.13
518.77	370.15
519.134	368
519.498	369.25
519.862	368.83
520.225	369.31
520.589	369.1
520.953	369.96
521.316	368.2
521.68	368.75
522.043	369.08
522.407	368.04
522.77	368.34
523.134	367
523.497	370.31
523.86	368.93
524.223	368.98
524.587	368.28
524.95	369.03
525.313	367.43
525.676	368.52
526.039	367.83
526.402	367.83
526.765	368.25
527.127	366.35
527.49	368.19
527.853	367.75
528.215	369.09
528.578	367.39
528.941	368.4
529.303	369.15
529.666	367.61
530.028	367.14
530.39	368.03
530.753	367.87
531.115	368.64
531.477	368.82
531.839	366.88
532.201	368.13
532.564	369.54
532.926	369.25
533.287	369.59
533.649	371.93
534.011	369.27
534.373	369.9
534.735	369.99
535.097	369.75
535.458	370.14
535.82	369.7
536.181	370.71
536.543	370.01
536.904	373.2
537.266	374.43
537.627	373.5
537.988	376.06
538.35	376.98
538.711	381.67
539.072	384.23
539.433	384.33
539.794	390.16
540.155	392.98
540.516	400.44
540.877	403.98
541.238	417.75
541.599	434.15
541.959	456.53
542.32	478.72
542.681	493.7
543.041	501.77
543.402	506.55
543.762	511.36
544.123	508.1
544.483	501.43
544.844	496.89
545.204	489.12
545.564	496.7
545.924	507.49
546.284	505.8
546.644	489.69
547.004	458.18
547.364	431.74
547.724	415.16
548.084	406.76
548.444	403.38
548.804	405.79
549.164	406.58
549.523	407.08
549.883	404.45
550.242	402.24
550.602	398.86
550.961	397.8
551.321	394.85
551.68	395.7
552.04	395.62
552.399	393.15
552.758	392.85
553.117	391.25
553.476	390.05
553.835	384.81
554.194	380.23
554.553	380.73
554.912	375.95
555.271	376.49
555.63	373.74
555.989	372.1
556.347	371.93
556.706	369.98
557.065	368.38
557.423	367.61
557.782	369.88
558.14	369.9
558.499	369.59
558.857	368.42
559.215	369.28
559.573	368.91
559.932	366.72
560.29	368.69
560.648	368.3
561.006	366.54
561.364	367.3
561.722	367.42
562.08	367.14
562.438	367.46
562.795	367.92
563.153	366.18
563.511	367.5
563.868	369.48
564.226	365.62
564.583	364.27
564.941	364.67
565.298	368.12
565.656	366.22
566.013	366.03
566.37	366.33
566.727	365.22
567.085	366.22
567.442	367.11
567.799	366.71
568.156	367.9
568.513	366.48
568.87	367.52
569.226	365.47
569.583	366.93
569.94	365.93
570.297	365.61
570.653	365.36
571.01	366.45
571.366	365.8
571.723	366.23
572.079	367.22
572.436	365.93
572.792	363.96
573.148	367.11
573.505	368.03
573.861	366.8
574.217	366.67
574.573	365.94
574.929	366.09
575.285	367.27
575.641	367.28
575.997	366.1
576.352	370.63
576.708	374.37
577.064	377.39
577.42	379.87
577.775	377.1
578.131	374.6
578.486	376.03
578.842	377.94
579.197	381.09
579.552	382.87
579.908	384.2
580.263	387.29
580.618	388.14
580.973	389.96
581.328	384.72
581.683	385.62
582.038	385.58
582.393	385.83
582.748	388.71
583.103	394.48
583.458	395.99
583.812	399.56
584.167	401.12
584.522	399.14
584.876	398.33
585.231	397
585.585	395.97
585.939	389.48
586.294	390.26
586.648	394.03
587.002	398.72
587.356	402.95
587.711	408.35
588.065	406.93
588.419	405.19
588.773	400.61
589.127	396.03
589.48	391.38
589.834	391.09
590.188	386.85
590.542	387
590.895	388.39
591.249	383.42
591.603	382.39
591.956	381.45
592.309	385.38
592.663	383.91
593.016	387.84
593.369	390.51
593.723	389.56
594.076	388.86
594.429	381.55
594.782	378.7
595.135	374.21
595.488	372.72
595.841	374.16
596.194	372.99
596.547	370.32
596.899	371.25
597.252	369.69
597.605	370.36
597.957	369.58
598.31	370.72
598.662	372.87
599.015	374.64
599.367	376.1
599.719	377.55
600.072	376.7
600.424	379.75
600.776	376.84
601.128	375.57
601.48	373.31
601.832	369.03
602.184	370.87
602.536	368.31
602.888	367.75
603.24	367.04
603.592	366.66
603.943	366.47
604.295	366.7
604.646	366.42
604.998	366.97
605.349	370.22
605.701	367.58
606.052	367.75
606.404	369.18
606.755	369.45
607.106	372.21
607.457	369.96
607.808	372.43
608.159	374.23
608.51	374.54
608.861	378.46
609.212	381.68
609.563	387.75
609.914	397.52
610.265	414.36
610.615	446.93
610.966	497.75
611.316	550.29
611.667	589.68
612.017	594.25
612.368	565.91
612.718	526.72
613.068	488.42
613.419	464.3
613.769	446.99
614.119	439.89
614.469	433.2
614.819	426.73
615.169	422.68
615.519	417.93
615.869	409.67
616.219	404.49
616.568	396.99
616.918	393.77
617.268	390.77
617.617	388.42
617.967	387.34
618.316	386.51
618.666	384.58
619.015	386.02
619.364	384.84
619.714	388.15
620.063	389.3
620.412	390.12
620.761	390.34
621.11	393
621.459	391.54
621.808	391.35
622.157	390.68
622.506	387.89
622.855	387.8
623.203	385.65
623.552	384.31
623.901	382.95
624.249	381.11
624.598	384.73
624.946	381.28
625.295	381.97
625.643	379.44
625.991	377.87
626.34	377.06
626.688	375.04
627.036	373.15
627.384	376.7
627.732	374.14
628.08	375.71
628.428	373.94
628.776	373.89
629.124	374.05
629.471	375.06
629.819	376
630.167	377.72
630.514	381.59
630.862	384.74
631.209	388.72
631.557	392.15
631.904	389.61
632.251	385.5
632.599	378.79
632.946	373.8
633.293	370.62
633.64	370.09
633.987	365.52
634.334	363.25
634.681	365.35
635.028	366.24
635.375	364.54
635.722	363.29
636.068	365.36
636.415	362.36
636.762	364.17
637.108	365.72
637.455	362.26
637.801	362.47
638.147	363.73
638.494	362.3
638.84	360.13
639.186	361.86
639.532	361.29
639.878	361.49
640.225	361.04
640.571	362.96
640.916	363.14
641.262	363.8
641.608	361.2
641.954	362.54
642.3	363.13
642.645	362.78
642.991	363.08
643.337	360.73
643.682	362.27
644.028	363.41
644.373	362.68
644.718	362.47
645.064	361.79
645.409	361.73
645.754	362.95
646.099	361.84
646.444	362.02
646.789	362.17
647.134	360.78
647.479	361.88
647.824	362.83
648.169	360.72
648.513	362.64
648.858	362.91
649.203	363.01
649.547	363.32
649.892	361.85
650.236	362.88
650.581	366.46
650.925	367.54
651.269	370
651.613	367.89
651.958	365.48
652.302	365.74
652.646	361.63
652.99	362.73
653.334	365.26
653.678	362.21
654.022	364.15
654.365	364.35
654.709	362.6
655.053	360.17
655.396	360.86
655.74	360.86
656.083	360.9
656.427	360.85
656.77	359.78
657.114	361.12
657.457	361.13
657.8	360.8
658.143	361.64
658.486	361.59
658.83	362.01
659.173	363.05
659.516	360.76
659.858	360.39
660.201	359.4
660.544	358.82
660.887	359.78
661.229	359.81
661.572	360.74
661.915	358.82
662.257	360.35
662.6	360.99
662.942	362.35
663.284	363.63
663.627	362.98
663.969	363.09
664.311	360.26
664.653	360.2
664.995	361.02
665.337	360.7
665.679	361.89
666.021	359.37
666.363	361.48
666.705	361.91
667.046	360.19
667.388	360.68
667.73	363.08
668.071	360.65
668.413	361.04
668.754	361.01
669.096	361.72
669.437	361.34
669.778	360.34
670.119	358.47
670.461	360.47
670.802	361.49
671.143	359.39
671.484	358.76
671.825	360.09
672.165	360.57
672.506	360.47
672.847	361.52
673.188	361.01
673.528	359.93
673.869	359.74
674.21	360.51
674.55	358.51
674.89	359.19
675.231	359.17
675.571	358.71
675.911	360.28
676.252	360.99
676.592	360.43
676.932	358.8
677.272	359.15
677.612	360.59
677.952	359.51
678.292	360.74
678.631	358.38
678.971	357.67
679.311	359.79
679.651	360.65
679.99	358.48
680.33	359.32
680.669	360.65
681.009	361.39
681.348	360.7
681.687	359.71
682.026	361.65
682.366	360.73
682.705	359.47
683.044	360.3
683.383	356.71
683.722	358.84
684.061	359.87
684.4	358.81
684.738	359.25
685.077	359.24
685.416	358.24
685.754	360.01
686.093	356.89
686.431	357.07
686.77	356.59
687.108	360.93
687.447	360.41
687.785	361.03
688.123	361.69
688.461	363.09
688.799	360.15
689.137	362.31
689.475	360.04
689.813	359.99
690.151	359.97
690.489	357.93
690.827	359.01
691.164	358.07
691.502	358.23
691.84	358.56
692.177	357.03
692.515	357.15
692.852	358.76
693.189	358.59
693.527	359.4
693.864	360.37
694.201	359.68
694.538	361.04
694.875	361.53
695.212	360.67
695.549	357.7
695.886	360.24
696.223	357.06
696.56	357.33
696.897	356.87
697.233	357.17
697.57	356.83
697.906	356.36
698.243	357.19
698.579	354.88
698.916	356.93
699.252	358.76
699.588	355.76
699.924	358.23
700.261	356.13
700.597	357.57
700.933	357.43
701.269	357.91
701.605	356.88
701.941	356.86
702.276	358.24
702.612	359.35
702.948	357.24
703.283	357.56
703.619	358.45
703.954	357.56
704.29	358.83
704.625	357.49
704.961	359.48
705.296	358.62
705.631	359.75
705.966	360.32
706.301	361.4
706.637	363.19
706.972	362.44
707.306	364.46
707.641	365.74
707.976	366.14
708.311	364.67
708.646	365.68
708.98	367.92
709.315	366.64
709.649	367.09
709.984	367.23
710.318	367.08
710.653	363.04
710.987	362.38
711.321	361.11
711.655	359.16
711.989	359.82
712.324	360.78
712.658	364.99
712.992	365.77
713.325	364.16
713.659	364.48
713.993	360.57
714.327	359.52
714.66	358.47
714.994	358.95
715.328	358.57
715.661	358.49
715.994	358.45
716.328	356.52
716.661	357.64
716.994	354.76
717.328	356.59
717.661	355.86
717.994	356.6
718.327	357.86
718.66	355.41
718.993	354.98
719.325	356.57
719.658	355.93
719.991	354.5
720.324	357.84
720.656	359.03
720.989	357.39
721.321	356.57
721.654	355.88
721.986	355.88
722.318	357.2
722.651	357.43
722.983	356.92
723.315	356.07
723.647	354.23
723.979	355.73
724.311	354.39
724.643	356.21
724.975	357.01
725.307	357.42
725.638	360.6
725.97	358.93
726.302	358.7
726.633	355.45
726.965	355.19
727.296	354.42
727.628	355.03
727.959	355.55
728.29	354.94
728.621	354.43
728.952	354.91
729.284	357.73
729.615	354.84
729.945	355.01
730.276	355.85
730.607	355.18
730.938	358.46
731.269	353.88
731.599	354.29
731.93	353.28
732.261	355.53
732.591	355.13
732.922	354.69
733.252	354.79
733.582	355.45
733.912	352.95
734.243	352.65
734.573	355.98
734.903	355.83
735.233	354.3
735.563	355
735.893	355.98
736.223	355.23
736.552	354.4
736.882	353.74
737.212	354.1
737.541	355.58
737.871	355.32
738.2	354.77
738.53	355.92
738.859	356.18
739.188	354.28
739.518	353.54
739.847	355.92
740.176	354.22
740.505	354.28
740.834	355.32
741.163	354.33
741.492	356.21
741.821	355.81
742.15	355.42
742.478	354.87
742.807	354.62
743.136	354.18
743.464	355.25
743.793	352.79
744.121	355.23
744.449	356.23
744.778	354.99
745.106	355.09
745.434	354.85
745.762	354.49
746.09	354.24
746.418	354.75
746.746	354.41
747.074	356.84
747.402	355.76
747.73	356.83
748.057	353.08
748.385	353.16
748.712	353.3
749.04	354.4
749.367	355.47
749.695	355
750.022	352.81
750.349	354.72
750.677	354.47
751.004	360.53
751.331	355.57
751.658	355.25
751.985	353.93
752.312	355.35
752.639	353.55
752.966	353.72
753.292	354.23
753.619	355.4
753.946	354.19
754.272	356.52
754.599	352.41
754.925	353.17
755.251	354.06
755.578	355.24
755.904	355.02
756.23	353.98
756.556	354.46
756.882	353.66
757.208	354.6
757.534	354.4
757.86	354.44
758.186	353.98
758.512	353.61
758.838	354.51
759.163	354.27
759.489	354.43
759.814	353.9
760.14	354.02
760.465	354.48
760.791	354.59
761.116	353.47
761.441	354.08
761.766	353.19
762.092	353.78
762.417	353.81
762.742	355.63
763.066	354.08
763.391	354.72
763.716	354.55
764.041	355.63
764.366	353.22
764.69	355.04
765.015	353.68
765.339	353.12
765.664	353.35
765.988	352.75
766.312	354.64
766.637	354.86
766.961	354.17
767.285	354.55
767.609	354.56
767.933	355.15
768.257	354.52
768.581	353.43
768.905	353.42
769.229	353.01
769.552	353.12
769.876	353.21
770.2	350.98
770.523	353.59
770.847	353.02
771.17	351.41
771.493	353.03
771.817	351
772.14	353.44
772.463	355.08
772.786	354.39
773.109	351.52
773.432	353.5
773.755	354.16
774.078	354.11
774.401	353.46
774.724	353.77
775.046	351.97
775.369	354.15
775.692	353.39
776.014	354.44
776.336	352.73
776.659	353.28
776.981	354.71
777.303	352.26
777.626	354.74
777.948	353.93
778.27	353.53
778.592	354.65
778.914	351.83
779.236	353.88
779.557	354.03
779.879	352.87
780.201	353.58
780.523	353.31
780.844	353.47
781.166	352.78
781.487	352.66
781.809	351.89
782.13	351.76
782.451	354.21
782.772	352.88
783.094	355.66
783.415	353.35
783.736	352.41
784.057	352.77
784.378	353.18
784.698	351.96
785.019	352.69
785.34	353.96
785.661	352.12
785.981	352.87
786.302	352.91
786.622	352.25
786.943	351.5
787.263	352.52
787.583	355.16
787.903	352.09
788.224	351.25
788.544	349.68
788.864	353.08
789.184	351.74
789.504	352.64
789.824	352.69
790.143	353.83
790.463	351.61
790.783	352.4
791.102	351.2
791.422	351.88
791.741	350.92
792.061	354.03
792.38	352.14
792.699	353.33
793.019	353.17
793.338	355.75
793.657	351.77
793.976	353.07
794.295	352.82
794.614	353.27
794.933	353.03
795.252	352.23
795.57	351.6
795.889	352.78
796.208	352
796.526	353.51
796.845	353.64
797.163	352.2
797.482	352.62
797.8	351.28
798.118	352.94
798.436	351.02
798.754	353.76
799.073	351.31
799.391	353.21
799.708	350.14
800.026	352.88
800.344	353.25
800.662	353.22
800.98	351.64
801.297	351.8
801.615	353.89
801.932	352.43
802.25	352.64
802.567	352.27
802.884	352.18
803.202	353.41
803.519	354.38
803.836	352.42
804.153	351.32
804.47	349.84
804.787	352.49
805.104	352.86
805.421	352.05
805.737	352.16
806.054	351.69
806.371	351.54
806.687	352.31
807.004	351.05
807.32	352.77
807.637	350.66
807.953	353.56
808.269	353.67
808.585	351.71
808.902	351.98
809.218	352.21
809.534	353.1
809.85	350.87
810.165	352.59
810.481	351.55
810.797	352
811.113	353.72
811.428	352
811.744	353.33
812.059	351.96
812.375	352.11
812.69	353.57
813.006	353.75
813.321	352.87
813.636	350.41
813.951	352.24
814.266	351.89
814.581	352.66
814.896	352.28
815.211	353.14
815.526	351.62
815.841	352.04
816.155	351.72
816.47	351.01
816.784	352.73
817.099	352.67
817.413	352.06
817.728	350.69
818.042	353.37
818.356	350.87
818.67	352.85
818.985	351.65
819.299	352.19
819.613	351.73
819.926	352.96
820.24	352.71
820.554	352.33
820.868	352.66
821.182	350.97
821.495	351.87
821.809	349.66
822.122	350.21
822.436	350.43
822.749	352.64
823.062	352.96
823.376	352.41
823.689	351.88
824.002	352.94
824.315	351.31
824.628	353.03
824.941	351.49
825.254	350.89
825.566	351.63
825.879	350.15
826.192	351.16
826.504	348.82
826.817	352.45
827.129	353.04
827.442	351.6
827.754	352.83
828.066	351.65
828.379	350.84
828.691	351.55
829.003	352.02
829.315	350.32
829.627	350.06
829.939	352.64
830.251	351.51
830.562	351.8
830.874	351.47
831.186	351.1
831.497	350.89
831.809	352.51
832.12	352.51
832.432	352.32
832.743	348.3
833.054	349.71
833.365	351.63
833.676	351.56
833.988	350.64
834.299	350.68
834.61	352.57
834.92	350.09
835.231	350.35
835.542	352.63
835.853	350.78
836.163	351.12
836.474	352.5
836.784	350.82
837.095	351.39
837.405	350.71
837.715	351.02
838.026	350.87
838.336	350.91
838.646	349.48
838.956	351.29
839.266	349.12
839.576	351.66
839.886	352.69
840.195	350.75
840.505	352.26
840.815	352.24
841.124	350.67
841.434	351.51
841.743	351.18
842.053	349.71
842.362	352.12
842.671	350.24
842.981	351.17
843.29	351.93
843.599	352.24
843.908	350.37
844.217	349.28
844.526	350.3
844.835	349.92
845.143	349.98
845.452	351.17
845.761	349.99
846.069	350.16
846.378	349.91
846.686	347.63
846.995	348.79
847.303	350.99
847.611	351.99
847.919	353.04
848.227	350.72
848.535	353.22
848.843	350
849.151	350.43
849.459	351.58
849.767	350.13
850.075	352.18
850.382	352.48
850.69	349.85
850.998	348.45
851.305	349.96
851.612	348.35
851.92	349.93
852.227	350.32
852.534	349.38
852.841	349.41
853.148	351.36
853.455	350.48
853.762	350.7
854.069	349.65
854.376	350.74
854.683	351.9
854.99	351.03
855.296	353.87
855.603	349.97
855.909	349.36
856.216	350.78
856.522	351.46
856.828	349.81
857.135	351.11
857.441	349.58
857.747	350.45
858.053	349.98
858.359	348.71
858.665	349.5
858.971	350.61
859.276	351.78
859.582	352.03
859.888	348.59
860.193	350.95
860.499	352.22
860.804	350.24
861.11	351.1
861.415	351.57
861.72	350.42
862.026	349.84
862.331	349.97
862.636	349.91
862.941	350.57
863.246	351.21
863.551	352.03
863.855	348.71
864.16	350.82
864.465	350.58
864.769	348.5
865.074	349.07
865.378	348.82
865.683	350.31
865.987	351.92
866.291	350.11
866.596	350.98
866.9	350.21
867.204	348.62
867.508	351.89
867.812	350.21
868.116	350.53
868.42	350.08
868.723	350.31
869.027	350.4
869.331	347.55
869.634	349.81
869.938	349.13
870.241	349.84
870.544	347.88
870.848	350.44
871.151	349.61
871.454	351.13
871.757	349.2
872.06	348.37
872.363	351.12
872.666	349.56
872.969	348.69
873.272	349.31
873.574	348.65
873.877	348.56
874.18	348.42
874.482	348.18
874.785	348.7
875.087	349.17
875.389	349.55
875.692	348.5
875.994	349.68
876.296	350.95
876.598	351.59
876.9	350.25
877.202	348.61
877.504	350.29
877.805	351.41
878.107	347.6
878.409	350.23
878.71	347.91
879.012	350.75
879.313	348.63
879.615	348.97
879.916	350.26
880.217	350.53
880.518	350.73
880.82	348.81
881.121	347.86
881.422	347.24
881.723	349.64
882.023	349.36
882.324	346.63
882.625	347.77
882.926	349.37
883.226	349.82
883.527	351.03
883.827	347.42
884.128	348.32
884.428	349.82
884.728	348.93
885.028	350.14
885.328	350.62
885.629	349.12
885.929	349.41
886.228	348.39
886.528	348.52
886.828	348.38
887.128	348.69
887.427	348.76
887.727	349.18
888.027	350.82
888.326	348.86
888.625	347.28
888.925	349.2
889.224	348.5
889.523	348.96
889.822	347.71
890.121	348.51
890.42	350.86
890.719	349.6
891.018	348.4
891.317	351.68
891.616	346.25
891.914	349.3
892.213	350.65
892.512	350.81
892.81	350
893.108	349.16
893.407	349.46
893.705	349.39
894.003	347.92
894.301	348.49
894.599	348.83
894.897	349.83
895.195	348.62
895.493	347.74
895.791	349.1
896.089	349.92
896.386	347.24
896.684	350.5
896.981	347.04
897.279	348.75
897.576	348.28
897.874	348.16
898.171	349.49
898.468	349.8
898.765	349.35
899.062	348.09
899.359	349.45
899.656	349.67
899.953	348.7
900.25	347.22
900.547	347.32
900.843	348.54
901.14	349.35
901.436	348.57
901.733	347.85
902.029	347.98
902.325	347.58
902.622	348.93
902.918	347.1
903.214	350.85
903.51	347.74
903.806	346.93
904.102	348.63
904.398	349.48
904.694	349.09
904.989	348.55
905.285	348.63
905.581	349.4
905.876	348.01
906.171	350.14
906.467	348.86
906.762	348.7
907.057	348.29
907.353	348.37
907.648	350.49
907.943	348.75
908.238	348.14
908.533	349.56
908.827	350.09
909.122	348
909.417	347.78
909.711	348.66
910.006	349.08
910.301	350.29
910.595	349.75
910.889	347.3
911.184	348.69
911.478	349.77
911.772	349.96
912.066	348.99
912.36	347.48
912.654	346.96
912.948	348.36
913.242	349.54
913.536	349.47
913.829	347.81
914.123	349.93
914.416	348.26
914.71	348.79
915.003	348.78
915.297	347.09
915.59	347.36
915.883	347.59
916.176	349.85
916.469	346.96
916.762	347.14
917.055	347.9
917.348	348.88
917.641	347.64
917.934	345.81
918.226	348.29
918.519	348.26
918.811	347.75
919.104	350.4
919.396	346.48
919.689	347.03
919.981	349.28
920.273	347.18
920.565	347.89
920.857	347.82
921.149	346.96
921.441	346.09
921.733	346.9
922.025	347.06
922.316	348.38
922.608	347.8
922.9	347.45
923.191	347.8
923.483	346.12
923.774	348.06
924.065	348.2
924.357	347.85
924.648	348.21
924.939	349.42
925.23	348.11
925.521	348.59
925.812	347.45
926.102	347.01
926.393	347.88
926.684	346.54
926.975	347.13
927.265	348.44
927.556	347.51
927.846	346.71
928.136	347.15
928.427	347.01
928.717	348.01
929.007	348.76
929.297	347.04
929.587	348.03
929.877	347.94
930.167	347.81
930.457	347
930.746	346.07
931.036	348.79
931.325	348.02
931.615	346.39
931.904	348.46
932.194	345.86
932.483	347.81
932.772	347.44
933.062	347.09
933.351	350.45
933.64	347.4
933.929	346.14
934.218	347.99
934.506	346.95
934.795	348.19
935.084	347.9
935.372	346.58
935.661	346.88
935.949	347.91
936.238	348.23
936.526	347.22
936.815	346.65
937.103	347.69
937.391	348.96
937.679	348.18
937.967	347.48
938.255	347.54
938.543	345.4
938.831	348.4
939.118	348
939.406	345.97
939.693	347.08
939.981	346.9
940.268	347.25
940.556	346.08
940.843	345.88
941.13	344.98
941.418	347.45
941.705	345.7
941.992	346.89
942.279	347.09
942.566	347.67
942.852	344.72
943.139	345.81
943.426	347.42
943.712	347.7
943.999	346.81
944.285	347.84
944.572	347.92
944.858	343.9
945.144	348.75
945.431	346.92
945.717	348.59
946.003	345.07
946.289	347.41
946.575	346.16
946.861	346.19
947.146	347.44
947.432	347.43
947.718	346.53
948.003	348.02
948.289	347.93
948.574	345.68
948.86	345.51
949.145	348.07
949.43	345.92
949.715	347.55
950	347.68
950.285	346.79
950.57	347.85
950.855	347.17
951.14	348.05
951.425	348.91
951.709	346.76
951.994	348.41
952.278	347.37
952.563	347.19
952.847	345.67
953.132	347.39
953.416	348.24
953.7	348.33
953.984	348.32
954.268	347.8
954.552	348.49
954.836	347.86
955.12	346.77
955.404	347.86
955.687	347.82
955.971	347.04
956.254	346.38
956.538	345.53
956.821	347.12
957.105	347.92
957.388	347.44
957.671	347.55
957.954	347.03
958.237	348.75
958.52	346.49
958.803	344.17
959.086	346.56
959.369	346.35
959.652	346.74
959.934	348.29
960.217	345.84
960.499	346.97
960.782	345.7
961.064	346.95
961.346	344.27
961.629	346.58
961.911	347.17
962.193	346.61
962.475	346.56
962.757	346.68
963.039	346.37
963.32	346.26
963.602	346.89
963.884	347.28
964.165	347.22
964.447	345.51
964.728	345.45
965.01	346.32
965.291	346.31
965.572	346.7
965.853	343.35
966.134	346.62
966.415	349.03
966.696	347.8
966.977	345.69
967.258	345.71
967.539	347.13
967.819	344.86
968.1	345.55
968.38	344.67
968.661	344.59
968.941	346.17
969.222	345.18
969.502	347.22
969.782	346.7
970.062	345.6
970.342	347.11
970.622	345.34
970.902	344.93
971.182	345.88
971.462	347.92
971.741	345.74
972.021	347.75
972.3	345.2
972.58	346.93
972.859	345.56
973.138	343.64
973.418	346.94
973.697	346.41
973.976	345.03
974.255	344.9
974.534	346.47
974.813	347.71
975.092	344.4
975.37	345.74
975.649	345.13
975.928	345.7
976.206	345.14
976.485	345.6
976.763	345.31
977.041	349.11
977.32	346.58
977.598	346.55
977.876	346.17
978.154	347.15
978.432	344.68
978.71	346.64
978.988	344.76
979.265	347.24
979.543	346.28
979.821	345.62
980.098	343.84
980.376	344.03
980.653	345.51
980.93	345.61
981.208	345.95
981.485	345.07
981.762	347.04
982.039	344.36
982.316	343.81
982.593	343.73
982.87	346.2
983.146	347.35
983.423	345.56
983.7	344.53
983.976	346.47
984.253	348.03
984.529	345.49
984.805	347.73
985.082	346.14
985.358	344.78
985.634	346.95
985.91	344.31
986.186	345.12
986.462	344.3
986.738	346.71
987.013	346.28
987.289	345.43
987.565	344.15
987.84	344.2
988.116	345.45
988.391	344.13
988.666	344.08
988.942	345.78
989.217	347.09
989.492	347.56
989.767	345.68
990.042	345.73
990.317	344.08
990.592	346.8
990.866	345.28
991.141	347.39
991.416	344.39
991.69	344.07
991.964	344.24
992.239	345
992.513	345.37
992.787	346.3
993.062	346.03
993.336	345.49
993.61	345.76
993.884	344.07
994.158	344.28
994.431	346.16
994.705	344.85
994.979	344.72
995.252	344.49
995.526	343.91
995.799	343.38
996.073	345.21
996.346	345.59
996.619	344.7
996.892	345.57
997.165	346.16
997.438	343.91
997.711	347.02
997.984	345.66
998.257	344.36
998.53	347.54
998.802	342.86
999.075	345
999.347	345.21
999.62	343.49
999.892	345.03
1000.165	345.06
1000.437	344.2
1000.709	345.55
1000.981	345.43
1001.253	344.3
1001.525	344.85
1001.797	345.16
1002.068	343.94
1002.34	346.04
1002.612	346.07
1002.883	345.71
1003.155	345.52
1003.426	344.99
1003.698	344.42
1003.969	343.34
1004.24	343.06
1004.511	344.94
1004.782	344.67
1005.053	345.35
1005.324	342.66
1005.595	345.85
1005.866	344.43
1006.136	344.67
1006.407	343.42
1006.678	345.24
1006.948	347.44
1007.218	346.63
1007.489	345.16
1007.759	344.5
1008.029	343.71
1008.299	343.42
1008.569	344.98
1008.839	343.36
1009.109	344.87
1009.379	343.18
1009.649	344.77
1009.918	345.18
1010.188	345.99
1010.458	343.96
1010.727	344.47
1010.996	343.38
1011.266	342.95
1011.535	347.03
1011.804	344.52
1012.073	343.88
1012.342	345.35
1012.611	345.34
1012.88	344.91
1013.149	344.16
1013.417	342.95
1013.686	345.87
1013.955	343.41
1014.223	345.08
1014.492	346.48
1014.76	346.77
1015.028	345.93
1015.296	344.4
1015.565	343.65
1015.833	343.18
1016.101	343.79
1016.368	343.08
1016.636	345.47
1016.904	344.94
1017.172	344.43
1017.439	343.82
1017.707	345.87
1017.974	344.83
1018.242	345.52
1018.509	344.86
1018.776	343.79
1019.044	344.67
1019.311	345.03
1019.578	344.71
1019.845	341.81
1020.112	344.16
1020.378	344.16
1020.645	344.16
