Data from 190708_Ar_24K_film_FLMS138901_13-53-32-321.txt Node
Date: Mon Jul 08 13:53:32 EDT 2019
User: pSAM
Spectrometer: FLMS13890
Trigger mode: 0
Integration Time (sec): 5.000000E-3
Scans to average: 1000
Electric dark correction enabled: true
Nonlinearity correction enabled: false
Boxcar width: 0
XAxis mode: Wavelengths
Number of Pixels in Spectrum: 2048
>>>>>Begin Spectral Data<<<<<
342.097	-62.18
342.483	-62.18
342.868	-62.18
343.254	-102.39
343.639	-103.36
344.025	-104.76
344.41	-99.59
344.796	-89.77
345.181	-78.63
345.567	-65.21
345.952	-55.13
346.337	-36.48
346.722	-19.11
347.107	0.32
347.493	20.23
347.878	39.36
348.263	60.61
348.648	78.02
349.033	98.74
349.418	118.4
349.802	133
350.187	153.52
350.572	171.39
350.957	191.16
351.342	207.65
351.726	224.48
352.111	237.58
352.495	250.91
352.88	262.46
353.264	275.8
353.649	284.4
354.033	295.18
354.418	303.56
354.802	311.29
355.186	315.87
355.57	323.1
355.955	327.44
356.339	331.31
356.723	333.55
357.107	337.72
357.491	356.4
357.875	343.05
358.259	344.4
358.643	344.33
359.026	345.35
359.41	343.64
359.794	343.91
360.178	343.72
360.561	341.89
360.945	341.14
361.329	339.84
361.712	337.76
362.096	337.11
362.479	336.45
362.862	333.58
363.246	330.41
363.629	330.3
364.012	328.01
364.396	325.45
364.779	326.39
365.162	323.66
365.545	322.38
365.928	323
366.311	322.9
366.694	318.79
367.077	318.99
367.46	319.28
367.843	317.13
368.226	317.84
368.608	314.84
368.991	317.08
369.374	315.5
369.756	315.62
370.139	315.83
370.521	313.73
370.904	316.76
371.286	315.62
371.669	314.41
372.051	313.57
372.433	315.58
372.816	317.24
373.198	316.94
373.58	317.69
373.962	315.55
374.344	319.25
374.726	319.54
375.108	318.76
375.49	321.73
375.872	321.37
376.254	318.23
376.636	320.76
377.018	320.73
377.399	324.52
377.781	323.39
378.163	324.74
378.544	324.8
378.926	325.06
379.307	324.14
379.689	325.27
380.07	325.91
380.452	327.77
380.833	326.34
381.214	328.18
381.596	327.49
381.977	330.37
382.358	329.06
382.739	331.53
383.12	330.48
383.501	331.56
383.882	331.54
384.263	331.48
384.644	331.15
385.025	332.88
385.406	332.73
385.787	333.25
386.167	333.25
386.548	334.86
386.929	333.62
387.309	334.02
387.69	335.94
388.07	336.69
388.451	338.16
388.831	335.91
389.211	337.59
389.592	336.4
389.972	335.16
390.352	336.12
390.733	338.25
391.113	340.79
391.493	337.68
391.873	339.38
392.253	338.54
392.633	340.92
393.013	341.09
393.393	341.82
393.772	339.22
394.152	341.71
394.532	341.62
394.912	343.29
395.291	342.34
395.671	343.44
396.05	341.97
396.43	343.22
396.809	344.18
397.189	344.24
397.568	344.63
397.948	346.3
398.327	345.82
398.706	347.02
399.085	344.56
399.465	346.39
399.844	347.3
400.223	344.98
400.602	345.93
400.981	346.95
401.36	345.36
401.739	347.58
402.117	347.28
402.496	347.84
402.875	349.75
403.254	348.98
403.632	351.13
404.011	351.02
404.39	354.41
404.768	352.87
405.147	352.73
405.525	351.25
405.903	351.14
406.282	352.99
406.66	352.29
407.038	353.23
407.417	351.69
407.795	352.97
408.173	352.97
408.551	352.05
408.929	354.86
409.307	354.75
409.685	352.52
410.063	355.2
410.441	355.05
410.818	355.9
411.196	355.3
411.574	357.11
411.952	358.8
412.329	358.34
412.707	359.96
413.084	359.17
413.462	358.28
413.839	359.75
414.217	359.41
414.594	358.86
414.971	359.58
415.349	359.99
415.726	359.2
416.103	360.23
416.48	360.11
416.857	361.51
417.234	359.44
417.611	361.8
417.988	362.68
418.365	361.57
418.742	360.97
419.119	362.2
419.495	363.78
419.872	363.26
420.249	371.39
420.625	365.14
421.002	364.87
421.379	366.03
421.755	365.95
422.131	366.44
422.508	365.59
422.884	366.34
423.26	368.17
423.637	365.06
424.013	365.2
424.389	368.32
424.765	367.99
425.141	367.28
425.517	366.69
425.893	368.08
426.269	368.81
426.645	368.88
427.021	367.76
427.397	370.2
427.772	367.92
428.148	368.42
428.524	369.08
428.899	370.29
429.275	372.2
429.651	371.37
430.026	371.26
430.401	371.94
430.777	372.33
431.152	372.63
431.527	371.8
431.903	373.78
432.278	372.67
432.653	373.29
433.028	373.08
433.403	375.37
433.778	373.3
434.153	374.88
434.528	374.68
434.903	380.42
435.278	387.44
435.653	392.76
436.027	390.99
436.402	387.56
436.777	382.91
437.151	378.7
437.526	377.32
437.9	376.45
438.275	377.6
438.649	378.09
439.023	378.67
439.398	378.42
439.772	376.86
440.146	378.76
440.52	378.82
440.895	379.25
441.269	379.74
441.643	380.51
442.017	382.14
442.391	380.46
442.765	380.88
443.138	378.98
443.512	381.54
443.886	379.95
444.26	383.33
444.633	382.59
445.007	381.48
445.38	383.34
445.754	383.67
446.127	383.32
446.501	383.7
446.874	382.75
447.248	384.31
447.621	383.44
447.994	382.32
448.367	383.92
448.741	386.24
449.114	383.57
449.487	383.59
449.86	385.59
450.233	383.41
450.606	384.86
450.978	386.28
451.351	401.25
451.724	387.27
452.097	385.09
452.469	385.2
452.842	385.45
453.215	384.39
453.587	386.22
453.96	386.3
454.332	385.86
454.704	387.66
455.077	387.15
455.449	386.9
455.821	385.79
456.194	388.56
456.566	388.28
456.938	388.28
457.31	392.52
457.682	389.75
458.054	388.79
458.426	387.75
458.798	388.04
459.17	390.9
459.541	391.35
459.913	391.49
460.285	389.9
460.656	391.45
461.028	388.92
461.399	391.69
461.771	390.53
462.142	390.82
462.514	394.65
462.885	390.95
463.256	393
463.628	391.08
463.999	392.56
464.37	393.39
464.741	395.65
465.112	394.7
465.483	392.5
465.854	397.17
466.225	394.69
466.596	394.63
466.967	394.97
467.338	394.75
467.708	395.69
468.079	395.25
468.45	395.89
468.82	398.01
469.191	398.09
469.561	395.47
469.932	396.46
470.302	395.99
470.673	397.8
471.043	397.74
471.413	398.55
471.783	399.12
472.154	398.98
472.524	399.82
472.894	402.43
473.264	401.5
473.634	402.07
474.004	401.08
474.374	402.28
474.743	402.69
475.113	403.38
475.483	403.32
475.853	403.94
476.222	404.75
476.592	406.25
476.961	407.38
477.331	407.13
477.7	407.89
478.07	407.64
478.439	409.68
478.808	406.77
479.178	407.99
479.547	411.72
479.916	411.76
480.285	411.12
480.654	410.97
481.023	414.55
481.392	415.33
481.761	416.36
482.13	414.65
482.499	417.17
482.867	418.58
483.236	418.98
483.605	420.41
483.973	423.72
484.342	425.33
484.71	426.19
485.079	434.21
485.447	444
485.816	451.06
486.184	451.61
486.552	444.02
486.921	438.25
487.289	436.49
487.657	434.31
488.025	433.5
488.393	434.63
488.761	435.61
489.129	436.12
489.497	435.58
489.865	437.58
490.233	439.29
490.6	440.69
490.968	439.44
491.336	439.6
491.703	439.63
492.071	440.09
492.438	440.2
492.806	440.71
493.173	441.4
493.541	442.66
493.908	440.05
494.275	440.48
494.642	439.23
495.01	442
495.377	439.72
495.744	440.5
496.111	442.63
496.478	444.92
496.845	444.04
497.211	443.34
497.578	444.59
497.945	445.72
498.312	448.11
498.678	446.76
499.045	446.73
499.412	444.81
499.778	445.15
500.145	447.22
500.511	446.47
500.878	446.09
501.244	444.87
501.61	448.27
501.976	446.55
502.343	447.59
502.709	448.33
503.075	448.6
503.441	450.14
503.807	449.57
504.173	448.17
504.539	447.98
504.905	450.13
505.27	449.01
505.636	454.08
506.002	451.08
506.367	452.55
506.733	452.98
507.099	452.85
507.464	452.17
507.829	452.01
508.195	452.38
508.56	454
508.926	453.09
509.291	452.95
509.656	453.91
510.021	453.21
510.386	456.23
510.751	453.95
511.116	455.19
511.481	454.96
511.846	456.67
512.211	457.82
512.576	457.51
512.941	459.14
513.305	457.49
513.67	458.6
514.035	457.16
514.399	461.1
514.764	458.1
515.128	460.16
515.493	461.36
515.857	459.02
516.221	459.42
516.585	462.16
516.95	459.77
517.314	461.04
517.678	461.24
518.042	460.39
518.406	462.75
518.77	464.08
519.134	463.01
519.498	463.58
519.862	464.58
520.225	463.5
520.589	465.33
520.953	465.86
521.316	467.8
521.68	464.98
522.043	466.28
522.407	466.82
522.77	465.91
523.134	469.4
523.497	467.39
523.86	468.04
524.223	468.82
524.587	467.56
524.95	469.61
525.313	469.77
525.676	471.71
526.039	470.15
526.402	471
526.765	471.98
527.127	473.59
527.49	473.64
527.853	472.82
528.215	474.57
528.578	474.11
528.941	474.57
529.303	477.23
529.666	476.14
530.028	477.25
530.39	476.09
530.753	476.9
531.115	481.2
531.477	477.82
531.839	478.94
532.201	481.65
532.564	481.42
532.926	483.07
533.287	486.42
533.649	485.47
534.011	485.8
534.373	486.05
534.735	487.89
535.097	488.5
535.458	488.86
535.82	490
536.181	490.69
536.543	490.38
536.904	489.74
537.266	494.37
537.627	497.99
537.988	497.42
538.35	498.12
538.711	500.52
539.072	505.03
539.433	507.77
539.794	509.35
540.155	512.65
540.516	516.06
540.877	522.15
541.238	533.21
541.599	546.78
541.959	558.66
542.32	574.53
542.681	579.66
543.041	580.7
543.402	583.11
543.762	582.55
544.123	580.8
544.483	579.42
544.844	577
545.204	576.59
545.564	588.29
545.924	595.28
546.284	591.81
546.644	571.91
547.004	552.28
547.364	539.34
547.724	535.51
548.084	531.75
548.444	531.7
548.804	532.54
549.164	533.76
549.523	534.32
549.883	532.95
550.242	531.6
550.602	530.11
550.961	529.66
551.321	530.01
551.68	529.23
552.04	529.84
552.399	532.12
552.758	530.09
553.117	530.54
553.476	528.3
553.835	526.29
554.194	528.07
554.553	524.98
554.912	522.36
555.271	523.32
555.63	523.8
555.989	524.24
556.347	523.92
556.706	522.93
557.065	523.53
557.423	525.81
557.782	525.92
558.14	525.3
558.499	525.78
558.857	526.44
559.215	524.71
559.573	527.06
559.932	528.72
560.29	529.31
560.648	528.52
561.006	530.09
561.364	531.04
561.722	529.31
562.08	534.95
562.438	530.25
562.795	532.41
563.153	533.02
563.511	531.59
563.868	537.57
564.226	536.92
564.583	535.74
564.941	535.48
565.298	536.85
565.656	536.14
566.013	535.86
566.37	539.35
566.727	538.06
567.085	543.51
567.442	543.5
567.799	544.77
568.156	547.13
568.513	548.8
568.87	551.38
569.226	554.08
569.583	559.68
569.94	562.31
570.297	561.55
570.653	562.4
571.01	565.24
571.366	567.96
571.723	568.49
572.079	570.03
572.436	566.95
572.792	567.65
573.148	572.66
573.505	577.43
573.861	582.23
574.217	582.69
574.573	581.25
574.929	581.13
575.285	581.7
575.641	582.77
575.997	587.56
576.352	594.14
576.708	596.09
577.064	602.83
577.42	607.86
577.775	608
578.131	606.7
578.486	605.82
578.842	603.18
579.197	606.92
579.552	611.93
579.908	618.39
580.263	621.59
580.618	618.37
580.973	622.9
581.328	634.51
581.683	644.24
582.038	642.28
582.393	631.64
582.748	622.61
583.103	615.36
583.458	612.28
583.812	620.27
584.167	624.27
584.522	626.94
584.876	628.02
585.231	630.14
585.585	626.83
585.939	622.66
586.294	620.12
586.648	622.22
587.002	627.86
587.356	635.05
587.711	640.95
588.065	638.39
588.419	636.34
588.773	629.07
589.127	621.69
589.48	618.01
589.834	617.03
590.188	611.72
590.542	612.53
590.895	610.88
591.249	612.41
591.603	610.65
591.956	610.59
592.309	617.74
592.663	623.25
593.016	634.21
593.369	634.69
593.723	628.19
594.076	624.82
594.429	623.61
594.782	627.03
595.135	630.12
595.488	627.97
595.841	625.14
596.194	618.19
596.547	616.56
596.899	617.28
597.252	618.92
597.605	620.03
597.957	618.07
598.31	621.73
598.662	625.44
599.015	625.39
599.367	628.35
599.719	630.48
600.072	630.24
600.424	632.71
600.776	631.5
601.128	633.71
601.48	632.41
601.832	628.84
602.184	632.44
602.536	629.4
602.888	636.02
603.24	638.68
603.592	641.5
603.943	637.87
604.295	632.52
604.646	631.83
604.998	632.84
605.349	635.98
605.701	637.14
606.052	637.85
606.404	636.16
606.755	638.35
607.106	639.42
607.457	638.49
607.808	639.25
608.159	638.63
608.51	639.6
608.861	643.19
609.212	644.16
609.563	654.8
609.914	663.7
610.265	678.93
610.615	711.53
610.966	746.49
611.316	771.19
611.667	774.93
612.017	757.5
612.368	730.79
612.718	713.77
613.068	700.22
613.419	693.47
613.769	688.02
614.119	686.39
614.469	684.72
614.819	676.91
615.169	676.14
615.519	673.49
615.869	667.09
616.219	665.24
616.568	660.84
616.918	659.24
617.268	660.6
617.617	660.35
617.967	661.66
618.316	659.65
618.666	658.13
619.015	660.73
619.364	661.85
619.714	666.66
620.063	668.03
620.412	667.2
620.761	664.84
621.11	668.05
621.459	664.45
621.808	665.94
622.157	666.45
622.506	672.77
622.855	672.36
623.203	673.35
623.552	670.75
623.901	671.17
624.249	669.97
624.598	670.81
624.946	666.6
625.295	668.12
625.643	666.64
625.991	669.39
626.34	667.56
626.688	667.11
627.036	670.02
627.384	668.16
627.732	671.98
628.08	672.48
628.428	673.15
628.776	672.85
629.124	674.46
629.471	672.42
629.819	677.26
630.167	677.63
630.514	682.14
630.862	682.39
631.209	686.5
631.557	682.51
631.904	681.69
632.251	681.52
632.599	676.01
632.946	676.69
633.293	675.83
633.64	673.96
633.987	676.57
634.334	676.35
634.681	675.65
635.028	677.23
635.375	676.68
635.722	679.09
636.068	681.25
636.415	682.81
636.762	683.63
637.108	683.09
637.455	684.06
637.801	683.31
638.147	687.17
638.494	684.95
638.84	686.71
639.186	688.07
639.532	688.26
639.878	689.37
640.225	688.29
640.571	691.35
640.916	690.03
641.262	690.79
641.608	689.93
641.954	691.99
642.3	694.17
642.645	694.47
642.991	693.69
643.337	698.98
643.682	700.3
644.028	698.77
644.373	698.99
644.718	698.96
645.064	700.16
645.409	699.88
645.754	703.12
646.099	703.15
646.444	703.43
646.789	703.96
647.134	703.51
647.479	705.56
647.824	705.92
648.169	708.1
648.513	713.85
648.858	712.46
649.203	712.35
649.547	715.27
649.892	716.53
650.236	716.86
650.581	716.62
650.925	717.71
651.269	715.99
651.613	718.8
651.958	718.74
652.302	720.66
652.646	719.74
652.99	718.34
653.334	720.46
653.678	719.83
654.022	722.84
654.365	721.66
654.709	721.63
655.053	728.34
655.396	797.82
655.74	1024.93
656.083	1198.44
656.427	1260.29
656.77	1114.36
657.114	934.62
657.457	822.78
657.8	768.63
658.143	743.59
658.486	733.21
658.83	733.56
659.173	730.63
659.516	730.94
659.858	731.14
660.201	732.72
660.544	730.42
660.887	730.29
661.229	733.4
661.572	732.69
661.915	734.87
662.257	734.29
662.6	739.24
662.942	739.47
663.284	739.29
663.627	737.5
663.969	736.94
664.311	739.89
664.653	739.08
664.995	740.61
665.337	740.3
665.679	741.3
666.021	740.71
666.363	738.73
666.705	741.17
667.046	741.78
667.388	742.36
667.73	740.88
668.071	743.7
668.413	745.02
668.754	744.44
669.096	743.49
669.437	746.79
669.778	745.04
670.119	746
670.461	744.95
670.802	744.69
671.143	745.92
671.484	747.82
671.825	750.8
672.165	750.28
672.506	753.13
672.847	754.64
673.188	751.87
673.528	753.23
673.869	750.08
674.21	754.4
674.55	755.12
674.89	753.75
675.231	753.23
675.571	756.01
675.911	756.83
676.252	758.12
676.592	759.92
676.932	755.93
677.272	756.74
677.612	757.95
677.952	760.07
678.292	761.26
678.631	758.38
678.971	760.28
679.311	759.43
679.651	759.64
679.99	761.65
680.33	764.6
680.669	762.15
681.009	763.23
681.348	765.57
681.687	766.49
682.026	767.54
682.366	764.2
682.705	765.27
683.044	768.05
683.383	767.52
683.722	767.37
684.061	768.66
684.4	770.3
684.738	771.74
685.077	774.7
685.416	774.54
685.754	776.13
686.093	776.36
686.431	777.98
686.77	776.26
687.108	776.16
687.447	776.88
687.785	776.74
688.123	778.69
688.461	781.67
688.799	776.68
689.137	776.73
689.475	777.76
689.813	776.84
690.151	779.68
690.489	780.6
690.827	778.65
691.164	780.86
691.502	779.73
691.84	779
692.177	781.97
692.515	783.3
692.852	780.31
693.189	787.44
693.527	784.08
693.864	784.87
694.201	785.01
694.538	785.91
694.875	783.45
695.212	785.57
695.549	785.89
695.886	784.79
696.223	784.57
696.56	787.34
696.897	786.26
697.233	790.83
697.57	791.93
697.906	794.72
698.243	793.88
698.579	792.39
698.916	792.08
699.252	792.72
699.588	791.3
699.924	797.12
700.261	793.17
700.597	796.14
700.933	791.97
701.269	791.78
701.605	792.35
701.941	793.24
702.276	794.3
702.612	794.56
702.948	794.73
703.283	797.92
703.619	796.02
703.954	799.66
704.29	798.57
704.625	797.47
704.961	797.7
705.296	798.53
705.631	800.84
705.966	800.04
706.301	803.28
706.637	806.25
706.972	810.81
707.306	812.86
707.641	814.86
707.976	811.62
708.311	810.65
708.646	813.31
708.98	809.44
709.315	810.3
709.649	812.21
709.984	811.92
710.318	809.12
710.653	811.81
710.987	811.32
711.321	810.82
711.655	810.47
711.989	811.16
712.324	810.74
712.658	813.17
712.992	814.6
713.325	814.57
713.659	817.57
713.993	812.45
714.327	811.33
714.66	813.56
714.994	811.96
715.328	812.67
715.661	814.91
715.994	815.31
716.328	813.04
716.661	813.59
716.994	813.83
717.328	809.76
717.661	813.46
717.994	814.44
718.327	816.06
718.66	812.35
718.993	815.27
719.325	818.03
719.658	818.05
719.991	818.83
720.324	816.18
720.656	813.61
720.989	813.86
721.321	817.11
721.654	817.15
721.986	815.65
722.318	816.01
722.651	819.48
722.983	818.47
723.315	819.54
723.647	817.98
723.979	819.66
724.311	820.67
724.643	820.16
724.975	818.26
725.307	818.13
725.638	822.84
725.97	823.1
726.302	830.28
726.633	822.81
726.965	823.84
727.296	824.01
727.628	820.88
727.959	819.08
728.29	821.29
728.621	820.62
728.952	823.44
729.284	820.84
729.615	821.53
729.945	819.28
730.276	819.47
730.607	821.38
730.938	822.95
731.269	819.95
731.599	822.12
731.93	822.36
732.261	820.78
732.591	819.65
732.922	820.98
733.252	816.85
733.582	818.64
733.912	819.04
734.243	822.88
734.573	822.45
734.903	824.5
735.233	820.89
735.563	822.52
735.893	821.99
736.223	823.89
736.552	820.92
736.882	819.23
737.212	818.74
737.541	818.54
737.871	818.06
738.2	816.6
738.53	813.39
738.859	813.24
739.188	811.66
739.518	812.52
739.847	814.84
740.176	812.86
740.505	814.09
740.834	810.33
741.163	813.18
741.492	809.86
741.821	807.56
742.15	804.83
742.478	808.74
742.807	806.57
743.136	805.26
743.464	803.27
743.793	800.93
744.121	802.61
744.449	803.64
744.778	802.52
745.106	803.56
745.434	803.35
745.762	800.67
746.09	799.55
746.418	797.76
746.746	797.66
747.074	797.12
747.402	801.76
747.73	802.55
748.057	802.62
748.385	798.49
748.712	799.82
749.04	800.95
749.367	803.06
749.695	798.64
750.022	800.87
750.349	800.41
750.677	799.33
751.004	805.39
751.331	795.53
751.658	797.23
751.985	795.81
752.312	786.56
752.639	788.2
752.966	788.1
753.292	786.82
753.619	788.34
753.946	791.11
754.272	790.48
754.599	790.8
754.925	788.98
755.251	785.67
755.578	785.93
755.904	784.65
756.23	784.21
756.556	788.39
756.882	792.22
757.208	788.39
757.534	789.09
757.86	789.47
758.186	792.51
758.512	792.42
758.838	789.71
759.163	785.76
759.489	787.18
759.814	782.37
760.14	784.87
760.465	788.34
760.791	783.56
761.116	784.3
761.441	780.89
761.766	784.95
762.092	779.95
762.417	775.24
762.742	775.18
763.066	774.58
763.391	775.99
763.716	777.69
764.041	776.89
764.366	771.79
764.69	768.65
765.015	771.22
765.339	774.95
765.664	775.6
765.988	773.28
766.312	768.44
766.637	766.38
766.961	763.93
767.285	763.12
767.609	758.91
767.933	758.49
768.257	759.35
768.581	761.8
768.905	769.03
769.229	767.51
769.552	764.99
769.876	765
770.2	765.31
770.523	765.4
770.847	758.43
771.17	757.96
771.493	759.25
771.817	760.91
772.14	758.87
772.463	755.31
772.786	758.95
773.109	753.68
773.432	756.11
773.755	752.44
774.078	750.78
774.401	749.32
774.724	747.49
775.046	746.82
775.369	744.79
775.692	746.64
776.014	746.47
776.336	744.65
776.659	743.29
776.981	744.46
777.303	740.6
777.626	738.9
777.948	737.78
778.27	739.64
778.592	743.3
778.914	739.91
779.236	740.23
779.557	738.06
779.879	741.73
780.201	741.29
780.523	743.19
780.844	741.35
781.166	742.39
781.487	745.46
781.809	747.5
782.13	747.91
782.451	747.22
782.772	747.56
783.094	747.33
783.415	750.38
783.736	749.23
784.057	750.6
784.378	752.7
784.698	751.15
785.019	753.12
785.34	748.5
785.661	752.85
785.981	756.89
786.302	754.42
786.622	756.69
786.943	757.1
787.263	754.19
787.583	755.61
787.903	760.12
788.224	759.25
788.544	760.02
788.864	759.9
789.184	763.01
789.504	763.58
789.824	766.87
790.143	764.72
790.463	762.32
790.783	760.6
791.102	761.75
791.422	763.18
791.741	766.49
792.061	766.22
792.38	766.45
792.699	762.13
793.019	764.18
793.338	764.25
793.657	762.95
793.976	769.24
794.295	766.19
794.614	771.33
794.933	770.3
795.252	773.22
795.57	774.03
795.889	771.86
796.208	766.26
796.526	762.29
796.845	760.24
797.163	759.09
797.482	762.49
797.8	764.98
798.118	764.74
798.436	761.7
798.754	761.2
799.073	762.5
799.391	763.04
799.708	762.2
800.026	763.77
800.344	762.78
800.662	761.47
800.98	760.27
801.297	761.35
801.615	760.73
801.932	761.79
802.25	759.01
802.567	756.58
802.884	757.37
803.202	758.73
803.519	756.3
803.836	760.17
804.153	754.65
804.47	753.25
804.787	751.93
805.104	750.19
805.421	752.07
805.737	753.81
806.054	755.27
806.371	755.17
806.687	753.81
807.004	752.43
807.32	754.3
807.637	753.11
807.953	752.59
808.269	752.07
808.585	750.78
808.902	747.98
809.218	746.51
809.534	749.16
809.85	748
810.165	742.66
810.481	742.91
810.797	738.27
811.113	740.21
811.428	740.38
811.744	741.77
812.059	743.42
812.375	743.25
812.69	737.84
813.006	734.59
813.321	736.99
813.636	738.01
813.951	739.26
814.266	741.45
814.581	736.91
814.896	729.45
815.211	730.75
815.526	732.23
815.841	729.98
816.155	731.68
816.47	731.29
816.784	726.42
817.099	724.43
817.413	726.57
817.728	725.68
818.042	722.88
818.356	723.18
818.67	722.29
818.985	720.75
819.299	716.63
819.613	718.94
819.926	719.92
820.24	720.88
820.554	724.14
820.868	721.71
821.182	716.78
821.495	718.77
821.809	713.16
822.122	713.32
822.436	714.79
822.749	710.94
823.062	710.37
823.376	710.34
823.689	710.69
824.002	712.49
824.315	708.89
824.628	711.84
824.941	710.01
825.254	706.55
825.566	701.29
825.879	705.52
826.192	703.47
826.504	704.69
826.817	705.65
827.129	705.56
827.442	699.46
827.754	698.92
828.066	698.18
828.379	696.62
828.691	700.65
829.003	701.06
829.315	699.62
829.627	696.34
829.939	693.71
830.251	697.9
830.562	693.21
830.874	696.19
831.186	697.44
831.497	697.7
831.809	693.01
832.12	690.04
832.432	686.29
832.743	685.05
833.054	685.34
833.365	687.01
833.676	687.47
833.988	684.52
834.299	682.34
834.61	686.19
834.92	688.34
835.231	687.35
835.542	689.22
835.853	684.47
836.163	679.83
836.474	677.94
836.784	677.53
837.095	678.89
837.405	678.18
837.715	682.2
838.026	680.34
838.336	675.52
838.646	672.92
838.956	667.46
839.266	671.05
839.576	668.46
839.886	674.23
840.195	671.92
840.505	671.57
840.815	667.75
841.124	666.15
841.434	665.01
841.743	666.02
842.053	665.82
842.362	666.08
842.671	665.19
842.981	665.56
843.29	660.73
843.599	657.8
843.908	661.67
844.217	660.41
844.526	661.63
844.835	660.3
845.143	656.41
845.452	652.58
845.761	649.62
846.069	648.03
846.378	651.52
846.686	652.24
846.995	651.47
847.303	650.03
847.611	651.06
847.919	647.14
848.227	647.37
848.535	640.86
848.843	644.75
849.151	645.55
849.459	644.5
849.767	640.05
850.075	642.39
850.382	639.48
850.69	637.73
850.998	636.6
851.305	636.86
851.612	640.95
851.92	639.81
852.227	636.55
852.534	635.14
852.841	632.54
853.148	637.16
853.455	640.06
853.762	635.8
854.069	636.23
854.376	635.29
854.683	631.24
854.99	627.89
855.296	628.82
855.603	624.8
855.909	628.32
856.216	627.83
856.522	625.86
856.828	624.6
857.135	620.65
857.441	621.41
857.747	619.04
858.053	620.64
858.359	618.01
858.665	622.98
858.971	618.22
859.276	617.15
859.582	616.16
859.888	614.2
860.193	613.66
860.499	612.14
860.804	616.24
861.11	610.95
861.415	610.11
861.72	608.37
862.026	607.9
862.331	604.21
862.636	605.3
862.941	604.42
863.246	604.76
863.551	603.21
863.855	601.97
864.16	601.15
864.465	596.6
864.769	596.11
865.074	596.92
865.378	596.56
865.683	594.58
865.987	595.78
866.291	591.85
866.596	593.76
866.9	590.15
867.204	589.54
867.508	591.4
867.812	590.67
868.116	590.13
868.42	587.47
868.723	584.95
869.027	585.87
869.331	582.81
869.634	582.61
869.938	581.76
870.241	583.62
870.544	583.17
870.848	583
871.151	582.42
871.454	579.49
871.757	578.43
872.06	576.15
872.363	575.18
872.666	576.08
872.969	574.06
873.272	576.25
873.574	572.02
873.877	572.15
874.18	569.12
874.482	568.19
874.785	571.03
875.087	567.81
875.389	571.58
875.692	570.86
875.994	569.45
876.296	564.97
876.598	563.34
876.9	563.46
877.202	560.86
877.504	558.42
877.805	560.58
878.107	561.23
878.409	557.34
878.71	562.71
879.012	561.27
879.313	555.87
879.615	556.36
879.916	554.62
880.217	553.26
880.518	555.76
880.82	555.64
881.121	554.05
881.422	551.03
881.723	550.08
882.023	548.28
882.324	547.83
882.625	545.62
882.926	546.75
883.226	549.81
883.527	545.77
883.827	543.77
884.128	541.27
884.428	541.21
884.728	537.05
885.028	539.57
885.328	540.48
885.629	540.8
885.929	539.82
886.228	535.36
886.528	535.26
886.828	533.87
887.128	528.89
887.427	530.99
887.727	528.63
888.027	529.19
888.326	529.79
888.625	532.18
888.925	527.56
889.224	525.27
889.523	523.45
889.822	521.38
890.121	523.95
890.42	523.64
890.719	524.66
891.018	521.96
891.317	524.5
891.616	523.69
891.914	519.28
892.213	520.19
892.512	518.21
892.81	519.66
893.108	519.77
893.407	521.36
893.705	522.68
894.003	522.4
894.301	520.49
894.599	516.69
894.897	519.21
895.195	518.92
895.493	517.58
895.791	518.81
896.089	518.57
896.386	519.23
896.684	520.72
896.981	518.64
897.279	519.14
897.576	517.55
897.874	517.92
898.171	518.05
898.468	518.17
898.765	521.67
899.062	520.24
899.359	518.12
899.656	516.84
899.953	517.26
900.25	516.89
900.547	516.96
900.843	516.08
901.14	515.28
901.436	519.69
901.733	520.02
902.029	519.63
902.325	519.35
902.622	516.22
902.918	514.8
903.214	514.67
903.51	513.13
903.806	517.3
904.102	520.45
904.398	519.89
904.694	520.04
904.989	518.12
905.285	518.5
905.581	512.96
905.876	516.86
906.171	516.74
906.467	518.31
906.762	517.44
907.057	519.7
907.353	517.84
907.648	514.68
907.943	513.94
908.238	511.91
908.533	511.7
908.827	511.93
909.122	510.28
909.417	512.22
909.711	513.39
910.006	511.35
910.301	510.32
910.595	509.06
910.889	509.85
911.184	507.37
911.478	508.68
911.772	508.82
912.066	507.64
912.36	507.03
912.654	507.1
912.948	508.75
913.242	507.78
913.536	505.29
913.829	505.61
914.123	505.11
914.416	504.84
914.71	503.43
915.003	505.5
915.297	500.63
915.59	502.69
915.883	501.01
916.176	501.24
916.469	497.99
916.762	497.46
917.055	497.86
917.348	498.15
917.641	501.78
917.934	499.55
918.226	498.6
918.519	496.34
918.811	492.99
919.104	494.76
919.396	491.56
919.689	490.64
919.981	487.5
920.273	489.23
920.565	489.21
920.857	489.84
921.149	489.87
921.441	489.59
921.733	486.05
922.025	484.08
922.316	482.02
922.608	483.44
922.9	482.71
923.191	479.91
923.483	481.84
923.774	482.39
924.065	481.54
924.357	480.64
924.648	478.74
924.939	475.51
925.23	474.37
925.521	472.98
925.812	471.94
926.102	470.9
926.393	473.78
926.684	474.02
926.975	475.36
927.265	470.37
927.556	472.38
927.846	469.9
928.136	467.69
928.427	466.68
928.717	466.8
929.007	466.07
929.297	463.46
929.587	465.03
929.877	464.28
930.167	464.05
930.457	461.24
930.746	456.98
931.036	457.85
931.325	458.46
931.615	458.91
931.904	459.05
932.194	456.2
932.483	458.45
932.772	455.44
933.062	454.63
933.351	454.46
933.64	452.65
933.929	453.24
934.218	454.42
934.506	451.33
934.795	452.98
935.084	453.11
935.372	452.72
935.661	453.13
935.949	447.17
936.238	448.94
936.526	445.76
936.815	443.53
937.103	442.88
937.391	443.36
937.679	441.97
937.967	443.55
938.255	440.68
938.543	441.71
938.831	441.25
939.118	440.07
939.406	439.32
939.693	437.11
939.981	435.07
940.268	434.94
940.556	435.59
940.843	436.34
941.13	436.04
941.418	434.89
941.705	435.46
941.992	431.94
942.279	432.33
942.566	431.46
942.852	429.43
943.139	429.77
943.426	428.68
943.712	426.3
943.999	429.73
944.285	428.68
944.572	427.38
944.858	427.12
945.144	423.66
945.431	425.33
945.717	423.05
946.003	421.7
946.289	421.08
946.575	422.79
946.861	422.99
947.146	421.47
947.432	423.02
947.718	419.47
948.003	419.62
948.289	417.62
948.574	416.83
948.86	415.98
949.145	416.41
949.43	415.49
949.715	414.91
950	415.08
950.285	413.71
950.57	415.18
950.855	413.8
951.14	414.21
951.425	413.62
951.709	411.01
951.994	408.77
952.278	410.03
952.563	407.58
952.847	409.85
953.132	407.18
953.416	409.88
953.7	408.17
953.984	408.76
954.268	406.59
954.552	406.14
954.836	402.96
955.12	402.51
955.404	401.79
955.687	404.03
955.971	404.24
956.254	401.59
956.538	401.19
956.821	401.52
957.105	400.66
957.388	400.73
957.671	400.56
957.954	401.15
958.237	397.44
958.52	397.69
958.803	395.07
959.086	395.66
959.369	396.03
959.652	394.68
959.934	397.69
960.217	394.68
960.499	394.61
960.782	394.33
961.064	392.28
961.346	391.35
961.629	391.7
961.911	388.67
962.193	391.47
962.475	390.78
962.757	392.49
963.039	390.13
963.32	391.49
963.602	389.82
963.884	390.02
964.165	388.63
964.447	387.61
964.728	387.2
965.01	386.77
965.291	384.73
965.572	385.85
965.853	387.68
966.134	385.04
966.415	387.56
966.696	385.91
966.977	385.02
967.258	384.32
967.539	384.05
967.819	383.57
968.1	381.08
968.38	382.71
968.661	381.7
968.941	382.09
969.222	382.05
969.502	382.03
969.782	382.37
970.062	382.34
970.342	380.16
970.622	379.42
970.902	378.07
971.182	377.91
971.462	377.87
971.741	377.4
972.021	377.5
972.3	379.15
972.58	378.23
972.859	377.04
973.138	375.1
973.418	375.67
973.697	374.33
973.976	373.6
974.255	375.27
974.534	371.85
974.813	373.66
975.092	372.46
975.37	375.22
975.649	372.88
975.928	370.73
976.206	372.55
976.485	373.01
976.763	371.35
977.041	371.08
977.32	371.49
977.598	371.54
977.876	370.02
978.154	369.59
978.432	369.73
978.71	369.59
978.988	366.58
979.265	368.69
979.543	367.5
979.821	366.18
980.098	367.14
980.376	368.7
980.653	367
980.93	366.45
981.208	364.26
981.485	364.84
981.762	365.6
982.039	365.39
982.316	365.23
982.593	364.41
982.87	364.61
983.146	364.22
983.423	361.91
983.7	362.59
983.976	362.67
984.253	360.65
984.529	363.39
984.805	363.4
985.082	362.33
985.358	361.6
985.634	362.3
985.91	359.89
986.186	362.3
986.462	362.77
986.738	359.92
987.013	360.7
987.289	359.76
987.565	362.73
987.84	362.13
988.116	361.01
988.391	359.09
988.666	359.56
988.942	359.9
989.217	358.98
989.492	357.97
989.767	357.67
990.042	358.81
990.317	358.27
990.592	358.53
990.866	358.24
991.141	356.87
991.416	358.76
991.69	358.45
991.964	356.45
992.239	354.9
992.513	356.82
992.787	356.18
993.062	354.83
993.336	356.11
993.61	355.3
993.884	355.28
994.158	355.02
994.431	355.44
994.705	355.09
994.979	354.46
995.252	352.87
995.526	354.5
995.799	354.55
996.073	353.71
996.346	354.85
996.619	354.67
996.892	353.83
997.165	353.32
997.438	354.85
997.711	352.15
997.984	351.91
998.257	352.27
998.53	355.21
998.802	353.46
999.075	351.68
999.347	351.5
999.62	352.02
999.892	351.84
1000.165	353.24
1000.437	352.1
1000.709	352.32
1000.981	353.99
1001.253	352.14
1001.525	349.67
1001.797	349.58
1002.068	350.23
1002.34	349.68
1002.612	351.88
1002.883	351.22
1003.155	350.07
1003.426	349.2
1003.698	349.98
1003.969	350.15
1004.24	348.15
1004.511	348.48
1004.782	350.46
1005.053	346.93
1005.324	349.44
1005.595	349.6
1005.866	350.13
1006.136	348.19
1006.407	349.43
1006.678	348.89
1006.948	347.33
1007.218	349.19
1007.489	348.47
1007.759	346.81
1008.029	348.91
1008.299	350.03
1008.569	349.88
1008.839	347.22
1009.109	347.82
1009.379	349.32
1009.649	346.66
1009.918	346.1
1010.188	347.51
1010.458	347.57
1010.727	345.57
1010.996	347.51
1011.266	347.83
1011.535	347.22
1011.804	348.39
1012.073	346.02
1012.342	347.71
1012.611	346.91
1012.88	345.86
1013.149	346.8
1013.417	346.51
1013.686	348.47
1013.955	348.17
1014.223	347.3
1014.492	347.55
1014.76	345.02
1015.028	347.47
1015.296	345.8
1015.565	345.02
1015.833	346.04
1016.101	346.64
1016.368	346.03
1016.636	346.79
1016.904	345.79
1017.172	344.28
1017.439	343.08
1017.707	347.17
1017.974	344.75
1018.242	344.22
1018.509	346.37
1018.776	345.29
1019.044	345.58
1019.311	346.73
1019.578	343.52
1019.845	345.35
1020.112	345.22
1020.378	345.22
1020.645	345.22
