Data from nofilm_gc_FLMS138901_20-31-31-790.txt Node
Date: Wed Aug 14 20:31:31 EDT 2019
User: pSAM
Spectrometer: FLMS13890
Trigger mode: 0
Integration Time (sec): 3.000000E-2
Scans to average: 60
Electric dark correction enabled: true
Nonlinearity correction enabled: false
Boxcar width: 0
XAxis mode: Wavelengths
Number of Pixels in Spectrum: 2048
>>>>>Begin Spectral Data<<<<<
342.097	-72.39
342.483	-72.39
342.868	-72.39
343.254	-109.2
343.639	-105.29
344.025	-110.91
344.41	-98.87
344.796	-87.64
345.181	-86.67
345.567	-68.08
345.952	-60.07
346.337	-35.02
346.722	-20.46
347.107	2.52
347.493	27.24
347.878	41.19
348.263	63.68
348.648	79.99
349.033	97.35
349.418	117.61
349.802	138.14
350.187	145.91
350.572	171.25
350.957	300.04
351.342	609.85
351.726	646.41
352.111	678.53
352.495	681.01
352.88	701.27
353.264	726.97
353.649	746.9
354.033	760.28
354.418	776.26
354.802	793.01
355.186	790.04
355.57	818.35
355.955	828.19
356.339	825.79
356.723	840.19
357.107	857.8
357.491	925.39
357.875	869.39
358.259	860.2
358.643	869.47
359.026	895.78
359.41	897.81
359.794	908.83
360.178	914.53
360.561	910.66
360.945	914.2
361.329	911.07
361.712	926.44
362.096	927.54
362.479	937.18
362.862	943.56
363.246	945.03
363.629	956.82
364.012	961.82
364.396	959.87
364.779	963.37
365.162	972.48
365.545	973.9
365.928	985.25
366.311	1004.16
366.694	1021.36
367.077	1026.16
367.46	1022.26
367.843	1040.15
368.226	1036.94
368.608	1051.54
368.991	1069.47
369.374	1059.79
369.756	1053.08
370.139	1066.79
370.521	1064.75
370.904	1078.42
371.286	1083.83
371.669	1082.65
372.051	1093.18
372.433	1109.28
372.816	1106.6
373.198	1109.53
373.58	1119.33
373.962	1126.12
374.344	1125.1
374.726	1147.67
375.108	1135.72
375.49	1156.17
375.872	1156.05
376.254	1148.45
376.636	1147.11
377.018	1170.41
377.399	1174.19
377.781	1184.97
378.163	1196.92
378.544	1209.53
378.926	1221.24
379.307	1242.51
379.689	1263.5
380.07	1259.14
380.452	1261.38
380.833	1278.67
381.214	1278.54
381.596	1289.73
381.977	1318.23
382.358	1325.84
382.739	1340.6
383.12	1362.4
383.501	1366.91
383.882	1365.37
384.263	1378.38
384.644	1360.53
385.025	1398.19
385.406	1381.19
385.787	1407.38
386.167	1418.68
386.548	1419.86
386.929	1459.11
387.309	1492.01
387.69	1526.05
388.07	1540.04
388.451	1565.78
388.831	1558.86
389.211	1543.53
389.592	1514.17
389.972	1496.11
390.352	1503.11
390.733	1525.56
391.113	1510.43
391.493	1531.13
391.873	1563.66
392.253	1604.21
392.633	1651.71
393.013	1661.63
393.393	1693.6
393.772	1673.02
394.152	1687.37
394.532	1691.69
394.912	1704.09
395.291	1693.07
395.671	1681.72
396.05	1647.4
396.43	1662.08
396.809	1667.61
397.189	1712.47
397.568	1720.64
397.948	1748.01
398.327	1795.75
398.706	1809.21
399.085	1824.83
399.465	1818.16
399.844	1786.56
400.223	1749.64
400.602	1749.92
400.981	1746.63
401.36	1731.82
401.739	1724.79
402.117	1741.22
402.496	1740.2
402.875	1749.15
403.254	1760.41
403.632	1770.82
404.011	1801.69
404.39	1841.83
404.768	1845.98
405.147	1910.84
405.525	1920.97
405.903	1933.98
406.282	1940.94
406.66	1902.26
407.038	1860.37
407.417	1833.49
407.795	1837.8
408.173	1834.63
408.551	1824.22
408.929	1847.69
409.307	1850.7
409.685	1879.89
410.063	1878.35
410.441	1863.1
410.818	1879.65
411.196	1881.81
411.574	1914.38
411.952	1920.03
412.329	1959.52
412.707	2056.23
413.084	2078.11
413.462	2087.3
413.839	2101.05
414.217	2021.82
414.594	2013.04
414.971	2017.68
415.349	2039.96
415.726	2019.47
416.103	1991.36
416.48	1988.03
416.857	2010.11
417.234	2044.48
417.611	2032.03
417.988	2028.7
418.365	2004.34
418.742	1998.28
419.119	2015.72
419.495	2030.57
419.872	2020.24
420.249	2119.22
420.625	2159.73
421.002	2194.09
421.379	2217.88
421.755	2299.75
422.131	2329.19
422.508	2348.63
422.884	2355.79
423.26	2392.14
423.637	2422.64
424.013	2325.69
424.389	2257.57
424.765	2213.41
425.141	2203.04
425.517	2186.04
425.893	2142.2
426.269	2124.43
426.645	2151.51
427.021	2280.88
427.397	2342.24
427.772	2368.35
428.148	2348.55
428.524	2315.89
428.899	2277.54
429.275	2317.84
429.651	2359.2
430.026	2420.49
430.401	2470.71
430.777	2437.33
431.152	2417.19
431.527	2373.44
431.903	2317.48
432.278	2304.87
432.653	2281.41
433.028	2315.81
433.403	2419.96
433.778	2521.51
434.153	2532.41
434.528	2504.02
434.903	2480.19
435.278	2503.57
435.653	2518.7
436.027	2539.03
436.402	2542.7
436.777	2546.76
437.151	2533.22
437.526	2550.14
437.9	2571.12
438.275	2589.91
438.649	2588.77
439.023	2629.03
439.398	2612.52
439.772	2596.78
440.146	2598.37
440.52	2661.61
440.895	2769.09
441.269	2906.06
441.643	3000.45
442.017	2971.58
442.391	2945.63
442.765	2892.88
443.138	2871.61
443.512	2879.3
443.886	2918.26
444.26	2931.19
444.633	2956.45
445.007	2958.89
445.38	2951.85
445.754	2963.89
446.127	2983.49
446.501	2950.27
446.874	2937.9
447.248	2907
447.621	2908.22
447.994	2886.7
448.367	2898.05
448.741	2912
449.114	2900.45
449.487	2947.74
449.86	2933.59
450.233	2936.56
450.606	2913.87
450.978	2875.32
451.351	2877.55
451.724	2855.06
452.097	2853.48
452.469	2878.73
452.842	2856.28
453.215	2874.26
453.587	2864.78
453.96	2863.11
454.332	2878.32
454.704	2906.06
455.077	2928.67
455.449	2966.41
455.821	2940.02
456.194	2962.99
456.566	2983.53
456.938	3035.3
457.31	3083.82
457.682	3190.04
458.054	3241
458.426	3303.75
458.798	3311.6
459.17	3305.98
459.541	3264.59
459.913	3214.44
460.285	3164.14
460.656	3131.76
461.028	3103.75
461.399	3124.85
461.771	3128.67
462.142	3141.57
462.514	3188.25
462.885	3293.54
463.256	3425.02
463.628	3483.74
463.999	3581.96
464.37	3699.36
464.741	3711.28
465.112	3677.77
465.483	3679.39
465.854	3655.93
466.225	3589.56
466.596	3560.6
466.967	3578.46
467.338	3545.07
467.708	3613.03
468.079	3609.93
468.45	3661.3
468.82	3648.2
469.191	3589.48
469.561	3515.38
469.932	3515.22
470.302	3434.45
470.673	3523.07
471.043	3532.38
471.413	3614.86
471.783	3678.54
472.154	3780.21
472.524	3872.53
472.894	3994.49
473.264	4122.87
473.634	4078.91
474.004	4060.04
474.374	4087.21
474.743	4109.01
475.113	4219.05
475.483	4295.87
475.853	4367.16
476.222	4406.49
476.592	4513.93
476.961	4469.16
477.331	4479.33
477.7	4557.12
478.07	4724.19
478.439	4746.8
478.808	4784.41
479.178	4782.91
479.547	4879.05
479.916	4928.21
480.285	5077.1
480.654	5111.34
481.023	5170.27
481.392	5171.69
481.761	5255.34
482.13	5330.78
482.499	5397.27
482.867	5434.49
483.236	5621.8
483.605	5822.25
483.973	5925.42
484.342	6136.2
484.71	6277.69
485.079	6766.59
485.447	8566.17
485.816	10369.42
486.184	11359.71
486.552	10209.63
486.921	8610.58
487.289	7455.18
487.657	6915.52
488.025	6674.2
488.393	6581.39
488.761	6606.53
489.129	6714.05
489.497	6845.73
489.865	7048.05
490.233	7149.64
490.6	7260.09
490.968	7157.69
491.336	7146.59
491.703	7102.59
492.071	7149.19
492.438	7243.26
492.806	7393.81
493.173	7553.27
493.541	7593.37
493.908	7525.21
494.275	7463.59
494.642	7394.26
495.01	7378.27
495.377	7313.21
495.744	7379.17
496.111	7599.02
496.478	7808.98
496.845	7822.4
497.211	7764.74
497.578	7732.85
497.945	7774.78
498.312	7979.59
498.678	8196.83
499.045	8387.36
499.412	8335.35
499.778	8298.01
500.145	8180.81
500.511	8130.79
500.878	8288.09
501.244	8422.66
501.61	8534.62
501.976	8500.78
502.343	8522.99
502.709	8584.03
503.075	8595.13
503.441	8576.79
503.807	8587.65
504.173	8489.27
504.539	8441.57
504.905	8524.77
505.27	8617.17
505.636	8697.57
506.002	8787.57
506.367	8765.04
506.733	8716.24
507.099	8634.17
507.464	8596.96
507.829	8643.24
508.195	8774.72
508.56	8800.05
508.926	8768.98
509.291	8741.37
509.656	8712.94
510.021	8788.75
510.386	8821.97
510.751	8915.83
511.116	8992.9
511.481	9079.24
511.846	9090.87
512.211	9078.5
512.576	9051.75
512.941	9082.29
513.305	9038.08
513.67	9090.38
514.035	9065.78
514.399	9145.16
514.764	9103.23
515.128	9185.99
515.493	9191.24
515.857	9186.68
516.221	9178.91
516.585	9216.57
516.95	9215.27
517.314	9215.03
517.678	9187.78
518.042	9192.25
518.406	9312.55
518.77	9323.4
519.134	9363.06
519.498	9513.28
519.862	9480.91
520.225	9387.42
520.589	9388.84
520.953	9405.63
521.316	9466.03
521.68	9451.06
522.043	9537.84
522.407	9448.9
522.77	9487.5
523.134	9542.64
523.497	9494.86
523.86	9532.23
524.223	9629.75
524.587	9637.6
524.95	9654.36
525.313	9727.76
525.676	9760.54
526.039	9813.73
526.402	9847.57
526.765	9957.9
527.127	10008.12
527.49	10028.05
527.853	10001.82
528.215	9968.56
528.578	10100.44
528.941	10140.42
529.303	10219.31
529.666	10224.88
530.028	10261.28
530.39	10296.99
530.753	10255.71
531.115	10264.49
531.477	10346.48
531.839	10399.51
532.201	10431.23
532.564	10510.29
532.926	10586.38
533.287	10821.72
533.649	10896.83
534.011	10959.14
534.373	11031.57
534.735	11074.88
535.097	11075.49
535.458	11161.7
535.82	11197.08
536.181	11093.75
536.543	11036.85
536.904	10989.03
537.266	11088.5
537.627	11242.3
537.988	11326.16
538.35	11492.41
538.711	11616.2
539.072	11746.46
539.433	11720.11
539.794	11777.57
540.155	11744.79
540.516	11745.44
540.877	11779.65
541.238	11906.41
541.599	12089.94
541.959	12214.5
542.32	12417.6
542.681	12517.88
543.041	12485.07
543.402	12491.69
543.762	12544.85
544.123	12547.77
544.483	12616.79
544.844	12645.26
545.204	12632.36
545.564	12597.51
545.924	12581.81
546.284	12565.22
546.644	12465.83
547.004	12517.68
547.364	12549.65
547.724	12735.29
548.084	12781.61
548.444	12925.82
548.804	12832.12
549.164	12754.98
549.523	12664.41
549.883	12606.17
550.242	12624.11
550.602	12652.78
550.961	12611.46
551.321	12510.4
551.68	12550.78
552.04	12648.75
552.399	12798.17
552.758	12817.48
553.117	12791.5
553.476	12854.61
553.835	12929.36
554.194	12949.33
554.553	12854.04
554.912	12787.96
555.271	12848.15
555.63	12927.89
555.989	13019.15
556.347	13008.66
556.706	12996.34
557.065	12948.51
557.423	12974.5
557.782	12992.56
558.14	12939.04
558.499	12953.27
558.857	12933.43
559.215	12861.61
559.573	12970.92
559.932	13046.36
560.29	13201.34
560.648	13293.17
561.006	13284.47
561.364	13309.93
561.722	13263.52
562.08	13308.99
562.438	13194.1
562.795	13257.26
563.153	13274.71
563.511	13267.31
563.868	13338.6
564.226	13399.6
564.583	13444.41
564.941	13416.11
565.298	13454.54
565.656	13444.09
566.013	13345.02
566.37	13414.6
566.727	13586.22
567.085	13863.74
567.442	14174.84
567.799	14399.78
568.156	14466.27
568.513	14728.09
568.87	15017.84
569.226	15560.23
569.583	16187.61
569.94	16539.3
570.297	16712.26
570.653	16627.26
571.01	16788.35
571.366	17253.54
571.723	17598.65
572.079	17572.91
572.436	17469.61
572.792	17315.11
573.148	17620.73
573.505	18123.02
573.861	18937.75
574.217	19124.9
574.573	19157.97
574.929	18940.23
575.285	18848.36
575.641	18969.43
575.997	19240.48
576.352	19358.74
576.708	19512.79
577.064	19829.51
577.42	20525.37
577.775	21235.14
578.131	21550.97
578.486	21294.56
578.842	20406.75
579.197	20167.62
579.552	20273.27
579.908	20988.94
580.263	21337.26
580.618	21125.02
580.973	21536.82
581.328	22853.1
581.683	24456.83
582.038	25254.52
582.393	24253.13
582.748	22460.99
583.103	20373.4
583.458	19026.49
583.812	18713.14
584.167	19166.87
584.522	20033.95
584.876	20757.54
585.231	21056.33
585.585	20995.69
585.939	20404.63
586.294	19795.92
586.648	19248.29
587.002	19023.15
587.356	19460.37
587.711	20161.84
588.065	20410.04
588.419	20637.9
588.773	20210.89
589.127	19333.2
589.48	18646.65
589.834	17656.93
590.188	17411.5
590.542	17202.75
590.895	16947.68
591.249	17021.13
591.603	16859.23
591.956	16796.11
592.309	17071.64
592.663	17583.32
593.016	18481.01
593.369	19039.7
593.723	18909.28
594.076	18555.27
594.429	18428.19
594.782	18628.51
595.135	19174.4
595.488	19342.56
595.841	19004.73
596.194	18371.29
596.547	17738.06
596.899	17388.03
597.252	17268.67
597.605	17312.47
597.957	17282.01
598.31	17242.85
598.662	17317.72
599.015	17458.14
599.367	17598.12
599.719	17474.49
600.072	17382.3
600.424	17429.51
600.776	17767.38
601.128	17895.03
601.48	18029.44
601.832	17993.61
602.184	17898.41
602.536	17998.82
602.888	18234.77
603.24	18704.24
603.592	18896.31
603.943	18738.56
604.295	18186.95
604.646	17470.06
604.998	17254.64
605.349	17224.3
605.701	17256.59
606.052	17165.66
606.404	17060.33
606.755	17012.1
607.106	16994.9
607.457	16901.08
607.808	16776.88
608.159	16648.17
608.51	16509.16
608.861	16438.89
609.212	16256.05
609.563	16391.43
609.914	16611.61
610.265	16787.7
610.615	17186.04
610.966	17268.55
611.316	17388.93
611.667	17473.72
612.017	17412.39
612.368	16997.13
612.718	16951.91
613.068	16861.87
613.419	16879.2
613.769	16845.89
614.119	16798.47
614.469	16797.17
614.819	16469.68
615.169	16254.75
615.519	16235.96
615.869	16160.89
616.219	15944.25
616.568	15616.79
616.918	15449.69
617.268	15440.05
617.617	15472.67
617.967	15432
618.316	15231.27
618.666	15121.5
619.015	14994.38
619.364	14973.15
619.714	15264.53
620.063	15388.77
620.412	15501.79
620.761	15367.91
621.11	15069.29
621.459	14694.7
621.808	14684.78
622.157	14863.96
622.506	15016.79
622.855	15242.21
623.203	15349.32
623.552	15334.4
623.901	15290.56
624.249	15136.19
624.598	15056.52
624.946	14852.37
625.295	14554.84
625.643	14404.09
625.991	14384.45
626.34	14307.05
626.688	14301.52
627.036	14355.69
627.384	14306.32
627.732	14359.15
628.08	14315.76
628.428	14222.18
628.776	14086.43
629.124	14142.47
629.471	14190.46
629.819	14297.62
630.167	14228.61
630.514	14121.29
630.862	13879.39
631.209	13807.37
631.557	13727.79
631.904	13716.89
632.251	13719.81
632.599	13589.11
632.946	13592.36
633.293	13603.18
633.64	13567.76
633.987	13526.97
634.334	13420.22
634.681	13366.98
635.028	13397.61
635.375	13382.19
635.722	13479.18
636.068	13511.76
636.415	13554.58
636.762	13608.47
637.108	13646
637.455	13687.28
637.801	13700.74
638.147	13833.6
638.494	13707.66
638.84	13629.17
639.186	13432.82
639.532	13342.62
639.878	13290.61
640.225	13316.19
640.571	13344.41
640.916	13243.31
641.262	13242.13
641.608	13095.12
641.954	13096.14
642.3	13048.96
642.645	12971.29
642.991	13055.63
643.337	13126.72
643.682	13120.21
644.028	13133.14
644.373	13071.57
644.718	13011.71
645.064	12996.99
645.409	12973.16
645.754	12925.98
646.099	12964.13
646.444	12930.09
646.789	12961.77
647.134	12938.22
647.479	12926.63
647.824	12897.07
648.169	12940.66
648.513	13040.67
648.858	13105
649.203	13109.52
649.547	13079.95
649.892	13015.82
650.236	13032.29
650.581	12940.18
650.925	12889.83
651.269	12884.38
651.613	12951.89
651.958	12949.61
652.302	13014.27
652.646	12952.38
652.99	12965.39
653.334	12974.34
653.678	12934.4
654.022	12911.34
654.365	12888.37
654.709	12933.14
655.053	13018.71
655.396	14548.29
655.74	25972.51
656.083	42205.22
656.427	54716.32
656.77	57728.69
657.114	47676.96
657.457	34518.84
657.8	23535.91
658.143	17034.55
658.486	14355.73
658.83	13476.3
659.173	13072.26
659.516	12913.74
659.858	12740.82
660.201	12601.5
660.544	12493.4
660.887	12422.23
661.229	12427.28
661.572	12418.29
661.915	12435.98
662.257	12387.87
662.6	12448.83
662.942	12374.21
663.284	12325.57
663.627	12319.63
663.969	12290.8
664.311	12319.67
664.653	12290.06
664.995	12248.99
665.337	12332.48
665.679	12318.33
666.021	12294.82
666.363	12162.37
666.705	12221.38
667.046	12133.41
667.388	12055.78
667.73	12078.27
668.071	12126.82
668.413	12058.5
668.754	12079.81
669.096	11988.68
669.437	12087.54
669.778	12051.31
670.119	12034.39
670.461	12019.67
670.802	12027.51
671.143	11983.47
671.484	12080.67
671.825	12062.77
672.165	12118.81
672.506	12118.12
672.847	12089.7
673.188	12107.1
673.528	12005.11
673.869	11900.18
674.21	11876.64
674.55	11831.37
674.89	11759.23
675.231	11730.68
675.571	11713.24
675.911	11710.51
676.252	11734.06
676.592	11815.11
676.932	11720.64
677.272	11584.85
677.612	11686.64
677.952	11643.82
678.292	11706.36
678.631	11680.54
678.971	11635.64
679.311	11702.38
679.651	11646.22
679.99	11691.07
680.33	11657.52
680.669	11640.36
681.009	11582.65
681.348	11626.78
681.687	11579.56
682.026	11568.3
682.366	11566.18
682.705	11567.6
683.044	11471.55
683.383	11424.25
683.722	11442.59
684.061	11363.13
684.4	11519.05
684.738	11588.75
685.077	11659.43
685.416	11714.01
685.754	11809.37
686.093	11825.23
686.431	11830.56
686.77	11676.15
687.108	11586.76
687.447	11474.39
687.785	11505.3
688.123	11459.8
688.461	11492.49
688.799	11329.41
689.137	11309.45
689.475	11316.69
689.813	11210.75
690.151	11266.79
690.489	11216.16
690.827	11205.87
691.164	11262.31
691.502	11253.2
691.84	11221.44
692.177	11223.35
692.515	11243.69
692.852	11140.31
693.189	11171.5
693.527	11158.41
693.864	11169.51
694.201	11174.8
694.538	11109.73
694.875	11047.1
695.212	10952.63
695.549	10982.11
695.886	10962.72
696.223	10940.75
696.56	10930.1
696.897	10853.73
697.233	10941.61
697.57	11042.34
697.906	11188.3
698.243	11121.85
698.579	10993.83
698.916	10977.11
699.252	10843.15
699.588	10863.85
699.924	10899.64
700.261	10853.08
700.597	10832.25
700.933	10780.85
701.269	10707.12
701.605	10687.15
701.941	10620.46
702.276	10630.75
702.612	10617.53
702.948	10681.66
703.283	10681.21
703.619	10651.08
703.954	10644.94
704.29	10573.49
704.625	10554.49
704.961	10491.74
705.296	10517.24
705.631	10469.95
705.966	10399.96
706.301	10402.23
706.637	10475.84
706.972	10678.57
707.306	10736.6
707.641	10839.21
707.976	10788.41
708.311	10766.78
708.646	10745.55
708.98	10590.81
709.315	10555.1
709.649	10503.05
709.984	10436.76
710.318	10340.83
710.653	10373.36
710.987	10380.84
711.321	10399.14
711.655	10336.76
711.989	10295.44
712.324	10246.97
712.658	10234.93
712.992	10225.98
713.325	10233.71
713.659	10264.09
713.993	10278.12
714.327	10328.54
714.66	10303.86
714.994	10278.28
715.328	10235.25
715.661	10243.83
715.994	10243.14
716.328	10126.02
716.661	10094.95
716.994	10038.67
717.328	9953.47
717.661	9913.65
717.994	9872.01
718.327	9877.3
718.66	9882.14
718.993	9914.18
719.325	9904.99
719.658	9879.13
719.991	9866.28
720.324	9860.01
720.656	9740.94
720.989	9631.99
721.321	9617.07
721.654	9609.75
721.986	9597.87
722.318	9585.1
722.651	9555.17
722.983	9418.28
723.315	9414.87
723.647	9350.2
723.979	9350.81
724.311	9364.85
724.643	9387.98
724.975	9374.85
725.307	9351.02
725.638	9474.53
725.97	9466.8
726.302	9567.57
726.633	9542.44
726.965	9572.41
727.296	9473.26
727.628	9401.85
727.959	9365.9
728.29	9377.49
728.621	9343.94
728.952	9378.83
729.284	9332.03
729.615	9346.54
729.945	9317.51
730.276	9334.83
730.607	9369.73
730.938	9357.2
731.269	9340.08
731.599	9390.22
731.93	9454.11
732.261	9341.87
732.591	9317.51
732.922	9252.77
733.252	9133.24
733.582	9093.23
733.912	9133.04
734.243	9146.09
734.573	9236.38
734.903	9300.71
735.233	9281.48
735.563	9275.25
735.893	9271.96
736.223	9234.63
736.552	9215.92
736.882	9125.23
737.212	9065.69
737.541	9065.08
737.871	9042.92
738.2	8937.02
738.53	8820.92
738.859	8765.08
739.188	8724.29
739.518	8752.96
739.847	8889.77
740.176	8834.34
740.505	8858.21
740.834	8853.78
741.163	8759.63
741.492	8656.42
741.821	8596.39
742.15	8557.72
742.478	8529.9
742.807	8444.7
743.136	8444.42
743.464	8398.99
743.793	8325.42
744.121	8311.55
744.449	8221.84
744.778	8248.48
745.106	8269.91
745.434	8250.88
745.762	8182.56
746.09	8170.93
746.418	8140.3
746.746	8089.63
747.074	8084.55
747.402	8129.45
747.73	8175.72
748.057	8217.65
748.385	8135.42
748.712	8116.59
749.04	8063.2
749.367	8081.58
749.695	8032.13
750.022	8078.37
750.349	8094.96
750.677	8130.87
751.004	8128.84
751.331	8078.57
751.658	8044.94
751.985	7962.06
752.312	7855.51
752.639	7781.17
752.966	7760.47
753.292	7679.99
753.619	7750.46
753.946	7820.9
754.272	7819.15
754.599	7855.71
754.925	7834.48
755.251	7757.78
755.578	7726.31
755.904	7684.05
756.23	7645.42
756.556	7679.66
756.882	7757.95
757.208	7745.91
757.534	7789.75
757.86	7820.94
758.186	7830.5
758.512	7852.3
758.838	7818.87
759.163	7745.42
759.489	7724.27
759.814	7639.24
760.14	7650.18
760.465	7703.41
760.791	7560.79
761.116	7480.8
761.441	7507.23
761.766	7494.95
762.092	7364.89
762.417	7238.13
762.742	7155.13
763.066	7131.5
763.391	7176.64
763.716	7205.44
764.041	7287.42
764.366	7283.11
764.69	7238.95
765.015	7175.83
765.339	7229.31
765.664	7280.22
765.988	7222.6
766.312	7104.62
766.637	6962.77
766.961	6886.68
767.285	6797.91
767.609	6734.83
767.933	6616.08
768.257	6668.71
768.581	6703.31
768.905	6819.99
769.229	6907.55
769.552	6950.21
769.876	6969.04
770.2	6913.53
770.523	6851.51
770.847	6762.73
771.17	6742.11
771.493	6732.92
771.817	6741.46
772.14	6606.04
772.463	6526.69
772.786	6482.04
773.109	6368.21
773.432	6425.72
773.755	6360.32
774.078	6310.63
774.401	6272.89
774.724	6235.76
775.046	6227.67
775.369	6144.26
775.692	6074.55
776.014	6057.51
776.336	5980.04
776.659	5991.43
776.981	5974.35
777.303	5961.33
777.626	5903.5
777.948	5911.88
778.27	5905.7
778.592	5932.83
778.914	5977.11
779.236	5924.69
779.557	5974.35
779.879	6017.54
780.201	6053.45
780.523	6068.94
780.844	6017.7
781.166	6030.75
781.487	6033.11
781.809	6040.88
782.13	6065.32
782.451	6047.22
782.772	6042.38
783.094	5984.31
783.415	6014.97
783.736	5993.83
784.057	5991.67
784.378	6004.4
784.698	5968.86
785.019	5976.83
785.34	5863.85
785.661	5893.09
785.981	5933.56
786.302	5941.33
786.622	5951.17
786.943	5942.34
787.263	5886.55
787.583	5865.24
787.903	5956.25
788.224	5936
788.544	5978.66
788.864	5968.29
789.184	6003.34
789.504	5992.73
789.824	5998.91
790.143	5990.66
790.463	5931.32
790.783	5901.92
791.102	5901.72
791.422	5926.89
791.741	5906.15
792.061	5870.16
792.38	5883.54
792.699	5825.34
793.019	5819.28
793.338	5773.53
793.657	5778.05
793.976	5842.22
794.295	5910.09
794.614	5996.96
794.933	5993.01
795.252	6022.46
795.57	5949.78
795.889	5936.65
796.208	5894.27
796.526	5788.78
796.845	5717.08
797.163	5637.5
797.482	5617.49
797.8	5643.23
798.118	5655.43
798.436	5692.6
798.754	5650.84
799.073	5629.77
799.391	5609.68
799.708	5619.48
800.026	5609.88
800.344	5602.65
800.662	5581.25
800.98	5557.63
801.297	5529.24
801.615	5581.66
801.932	5601.06
802.25	5585.32
802.567	5525.26
802.884	5496.3
803.202	5436.44
803.519	5374.58
803.836	5425.25
804.153	5397.64
804.47	5407.81
804.787	5314.03
805.104	5288.94
805.421	5320.58
805.737	5298.94
806.054	5314.23
806.371	5355.39
806.687	5367.26
807.004	5343.92
807.32	5295.77
807.637	5247.33
807.953	5266.65
808.269	5230.7
808.585	5210.41
808.902	5183.4
809.218	5189.87
809.534	5147.09
809.85	5101.17
810.165	5079.82
810.481	5101.54
810.797	5060.71
811.113	5035.86
811.428	5026.06
811.744	5042
812.059	5017.68
812.375	4980.76
812.69	4943.67
813.006	4899.22
813.321	4849.2
813.636	4856.03
813.951	4875.31
814.266	4901.17
814.581	4884.62
814.896	4894.99
815.211	4828.62
815.526	4809.83
815.841	4735.61
816.155	4725.32
816.47	4713.25
816.784	4742.24
817.099	4700.6
817.413	4660.17
817.728	4666.64
818.042	4635.25
818.356	4648.38
818.67	4632.68
818.985	4612.88
819.299	4558.42
819.613	4559.4
819.926	4494.86
820.24	4495.67
820.554	4519.26
820.868	4532.8
821.182	4530.69
821.495	4531.38
821.809	4456.92
822.122	4427.31
822.436	4410.92
822.749	4409.54
823.062	4376.8
823.376	4372.29
823.689	4338.94
824.002	4310.6
824.315	4287.46
824.628	4297.05
824.941	4321.21
825.254	4296.04
825.566	4264.36
825.879	4293.11
826.192	4254.15
826.504	4217.22
826.817	4229.26
827.129	4248.01
827.442	4206.93
827.754	4238.33
828.066	4236.05
828.379	4191.03
828.691	4180.38
829.003	4138.17
829.315	4134.83
829.627	4133.73
829.939	4098.15
830.251	4068.38
830.562	4025.52
830.874	4021.29
831.186	3983.22
831.497	3972.97
831.809	3959.76
832.12	3919.74
832.432	3893.67
832.743	3922.91
833.054	3895.46
833.365	3876.31
833.676	3889.44
833.988	3875.17
834.299	3857.6
834.61	3894.93
834.92	3879.44
835.231	3887.29
835.542	3890.78
835.853	3836.29
836.163	3832.91
836.474	3800.5
836.784	3795.91
837.095	3745.15
837.405	3717.87
837.715	3701.4
838.026	3704.49
838.336	3708.96
838.646	3680.13
838.956	3620.35
839.266	3607.29
839.576	3582.24
839.886	3575.45
840.195	3585.45
840.505	3587.97
840.815	3573.17
841.124	3549.71
841.434	3535.11
841.743	3504.44
842.053	3496.19
842.362	3494.4
842.671	3491.92
842.981	3470.36
843.29	3440.55
843.599	3436.53
843.908	3408.67
844.217	3370.77
844.526	3382.32
844.835	3382.16
845.143	3358.2
845.452	3330.71
845.761	3325.1
846.069	3288.54
846.378	3274.02
846.686	3249.66
846.995	3260.93
847.303	3240.27
847.611	3229.81
847.919	3211.88
848.227	3213.14
848.535	3160.44
848.843	3154.25
849.151	3133.8
849.459	3131.48
849.767	3132.42
850.075	3104.64
850.382	3081.78
850.69	3091.75
850.998	3068.61
851.305	3037.5
851.612	3057.47
851.92	3061.74
852.227	3059.86
852.534	3066.45
852.841	3057.42
853.148	3069.83
853.455	3103.54
853.762	3110.78
854.069	3110.74
854.376	3091.71
854.683	3052.5
854.99	3030.5
855.296	3020.13
855.603	2967.06
855.909	2934.2
856.216	2912.12
856.522	2899.23
856.828	2879.22
857.135	2842.66
857.441	2845.59
857.747	2807.2
858.053	2798.29
858.359	2758.76
858.665	2778.44
858.971	2753.68
859.276	2746.48
859.582	2740.99
859.888	2728.59
860.193	2716.67
860.499	2698.13
860.804	2679.5
861.11	2662.54
861.415	2658.56
861.72	2639.93
862.026	2635.01
862.331	2606.99
862.636	2597.51
862.941	2574.5
863.246	2556.28
863.551	2556.44
863.855	2566.53
864.16	2574.05
864.465	2552.17
864.769	2537.86
865.074	2495.4
865.378	2474.82
865.683	2465.22
865.987	2472.18
866.291	2468.15
866.596	2453.1
866.9	2418.21
867.204	2414.75
867.508	2404.47
867.812	2380.23
868.116	2395.03
868.42	2383.32
868.723	2367.62
869.027	2376.12
869.331	2364.86
869.634	2331.96
869.938	2303.77
870.241	2306.9
870.544	2300.97
870.848	2293.93
871.151	2282.63
871.454	2280.76
871.757	2253.55
872.06	2223.54
872.363	2212.39
872.666	2192.83
872.969	2167.58
873.272	2191.41
873.574	2192.83
873.877	2183.15
874.18	2169.94
874.482	2144.32
874.785	2132.4
875.087	2108.53
875.389	2103.81
875.692	2100.27
875.994	2087.06
876.296	2074.57
876.598	2063.83
876.9	2040.98
877.202	2009.14
877.504	2004.42
877.805	1997.06
878.107	1997.38
878.409	1993.89
878.71	2009.91
879.012	2002.34
879.313	1984.29
879.615	1983.68
879.916	1962.61
880.217	1952.04
880.518	1961.68
880.82	1959.28
881.121	1946.47
881.422	1929.18
881.723	1914.62
882.023	1892.18
882.324	1870.46
882.625	1856.88
882.926	1841.79
883.226	1867.37
883.527	1848.7
883.827	1862.94
884.128	1859.68
884.428	1860.78
884.728	1829.67
885.028	1817.8
885.328	1805.07
885.629	1802.79
885.929	1781.97
886.228	1797.54
886.528	1790.06
886.828	1788.76
887.128	1775.09
887.427	1756.92
887.727	1745.49
888.027	1736.87
888.326	1733.49
888.625	1740.2
888.925	1714.3
889.224	1719.26
889.523	1695.06
889.822	1699.41
890.121	1686.85
890.42	1672.16
890.719	1660.66
891.018	1655.21
891.317	1662.4
891.616	1669.24
891.914	1651.67
892.213	1654.8
892.512	1639.02
892.81	1633.82
893.108	1617.47
893.407	1618.28
893.705	1621.66
894.003	1631.86
894.301	1599.45
894.599	1605.88
894.897	1611.16
895.195	1611
895.493	1606.57
895.791	1594.65
896.089	1597.66
896.386	1616.12
896.684	1597.05
896.981	1602.5
897.279	1599.41
897.576	1613.6
897.874	1582.37
898.171	1595.42
898.468	1579.24
898.765	1585.75
899.062	1593.72
899.359	1602.99
899.656	1603.11
899.953	1596.85
900.25	1593.88
900.547	1579.69
900.843	1564.76
901.14	1546.42
901.436	1567.12
901.733	1573.18
902.029	1589.32
902.325	1580.99
902.622	1565.37
902.918	1580.3
903.214	1561.35
903.51	1554.27
903.806	1546.71
904.102	1535.4
904.398	1549.15
904.694	1552.11
904.989	1565.09
905.285	1581.76
905.581	1561.14
905.876	1556.18
906.171	1552.97
906.467	1522.87
906.762	1536.74
907.057	1516.49
907.353	1532.72
907.648	1525.56
907.943	1540.12
908.238	1530.11
908.533	1513.11
908.827	1507.09
909.122	1474.36
909.417	1490.87
909.711	1475.7
910.006	1472.2
910.301	1472.49
910.595	1487.62
910.889	1489.4
911.184	1481.23
911.478	1486.4
911.772	1473.06
912.066	1448
912.36	1464.48
912.654	1461.83
912.948	1479.44
913.242	1473.54
913.536	1466.75
913.829	1449.14
914.123	1437.47
914.416	1409.74
914.71	1422.55
915.003	1419.94
915.297	1398.47
915.59	1395.34
915.883	1409.74
916.176	1396.76
916.469	1407.46
916.762	1410.83
917.055	1392.41
917.348	1394.2
917.641	1390.38
917.934	1391.72
918.226	1376.92
918.519	1379.15
918.811	1363.21
919.104	1368.22
919.396	1342.31
919.689	1337.27
919.981	1322.79
920.273	1313.03
920.565	1297.9
920.857	1289.89
921.149	1287.12
921.441	1278.38
921.733	1265.53
922.025	1263.5
922.316	1264.8
922.608	1236.13
922.9	1232.87
923.191	1227.46
923.483	1223.32
923.774	1208.8
924.065	1210.38
924.357	1220.39
924.648	1207.13
924.939	1197
925.23	1186.39
925.521	1173.66
925.812	1169.27
926.102	1156.58
926.393	1147.76
926.684	1156.5
926.975	1156.09
927.265	1146.54
927.556	1151.33
927.846	1122.42
928.136	1112.94
928.427	1104.89
928.717	1096.56
929.007	1095.86
929.297	1081.71
929.587	1063.21
929.877	1057.8
930.167	1068.17
930.457	1063.53
930.746	1055.64
931.036	1038.44
931.325	1023.64
931.615	1020.59
931.904	1011.19
932.194	1001.72
932.483	998.02
932.772	990.94
933.062	992.28
933.351	981.95
933.64	975.28
933.929	968.25
934.218	955.44
934.506	942.75
934.795	932.42
935.084	922.34
935.372	912.82
935.661	896.63
935.949	886.22
936.238	887.61
936.526	863.41
936.815	854.83
937.103	838.03
937.391	815.1
937.679	806.15
937.967	791.14
938.255	784.8
938.543	769.38
938.831	752.71
939.118	748.2
939.406	732.82
939.693	725.79
939.981	709.03
940.268	711.31
940.556	699.15
940.843	676.46
941.13	658.12
941.418	650.59
941.705	641.89
941.992	635.39
942.279	631.81
942.566	626.85
942.852	622.17
943.139	608.87
943.426	611.19
943.712	591.79
943.999	595.73
944.285	590.85
944.572	591.83
944.858	591.06
945.144	584.1
945.431	572.68
945.717	579.47
946.003	573.81
946.289	573.04
946.575	574.75
946.861	571.66
947.146	570.36
947.432	568.85
947.718	567.88
948.003	569.42
948.289	574.18
948.574	573.57
948.86	566.41
949.145	569.87
949.43	575.93
949.715	573.77
950	567.02
950.285	576.05
950.57	558.04
950.855	578.25
951.14	579.22
951.425	581.38
951.709	584.02
951.994	584.18
952.278	579.14
952.563	578
952.847	576.58
953.132	581.5
953.416	590.33
953.7	586.3
953.984	590.94
954.268	582.23
954.552	587.84
954.836	598.05
955.12	592.36
955.404	599.76
955.687	591.87
955.971	589.55
956.254	584.63
956.538	583.86
956.821	583.53
957.105	589.43
957.388	589.27
957.671	593.09
957.954	603.5
958.237	596.34
958.52	593.21
958.803	583.57
959.086	596.95
959.369	590.16
959.652	583.94
959.934	585.4
960.217	578.21
960.499	592.32
960.782	589.02
961.064	588.5
961.346	587.68
961.629	581.74
961.911	574.71
962.193	577.35
962.475	576.42
962.757	582.31
963.039	580.81
963.32	579.91
963.602	574.91
963.884	574.42
964.165	563.4
964.447	569.42
964.728	577.76
965.01	569.75
965.291	567.76
965.572	560.92
965.853	565.64
966.134	561.29
966.415	565.03
966.696	568.37
966.977	562.63
967.258	557.43
967.539	563.08
967.819	570.03
968.1	552.46
968.38	557.55
968.661	554.01
968.941	557.43
969.222	544.74
969.502	549.9
969.782	547.14
970.062	547.75
970.342	545.02
970.622	548.89
970.902	546.65
971.182	541.85
971.462	539.13
971.741	543.8
972.021	533.68
972.3	536.12
972.58	530.26
972.859	538.8
973.138	521.88
973.418	532.46
973.697	523.71
973.976	524.12
974.255	516.55
974.534	517.21
974.813	522
975.092	512.41
975.37	507.32
975.649	518.06
975.928	521.07
976.206	510.21
976.485	518.99
976.763	516.11
977.041	505.45
977.32	507.28
977.598	506.88
977.876	502.89
978.154	506.27
978.432	508.34
978.71	500.33
978.988	489.71
979.265	498.66
979.543	493.29
979.821	489.92
980.098	496.26
980.376	492.76
980.653	484.83
980.93	486.79
981.208	486.79
981.485	476.42
981.762	479.1
982.039	482.92
982.316	479.67
982.593	474.95
982.87	470.52
983.146	480.4
983.423	466.05
983.7	473.57
983.976	467.55
984.253	459.58
984.529	467.59
984.805	462.26
985.082	460.15
985.358	470.93
985.634	457.3
985.91	462.34
986.186	457.22
986.462	455.51
986.738	456.9
987.013	457.95
987.289	448.11
987.565	458.03
987.84	450.14
988.116	445.67
988.391	450.1
988.666	443.43
988.942	440.22
989.217	441.48
989.492	442.01
989.767	442.82
990.042	432.37
990.317	444.21
990.592	444.37
990.866	437.01
991.141	438.23
991.416	431.97
991.69	439.86
991.964	429.12
992.239	430.62
992.513	432.45
992.787	435.3
993.062	427.66
993.336	419.93
993.61	429.2
993.884	419.6
994.158	421.88
994.431	416.31
994.705	418.59
994.979	416.84
995.252	413.18
995.526	407.44
995.799	414.97
996.073	409.03
996.346	420.01
996.619	415.37
996.892	413.67
997.165	422.57
997.438	415.17
997.711	406.91
997.984	412.85
998.257	405.74
998.53	406.67
998.802	405.78
999.075	394.35
999.347	396.26
999.62	410.25
999.892	397.97
1000.165	404.96
1000.437	404.03
1000.709	394.51
1000.981	400.73
1001.253	398.66
1001.525	389.92
1001.797	400.33
1002.068	392.6
1002.34	393.78
1002.612	394.31
1002.883	392.84
1003.155	387.43
1003.426	393.21
1003.698	392.52
1003.969	381.25
1004.24	385.44
1004.511	388.45
1004.782	388.78
1005.053	380.97
1005.324	385.28
1005.595	382.76
1005.866	386.7
1006.136	379.02
1006.407	380.28
1006.678	385.32
1006.948	371.13
1007.218	382.11
1007.489	382.23
1007.759	384.3
1008.029	378.81
1008.299	375.89
1008.569	382.68
1008.839	383.33
1009.109	375.52
1009.379	366.21
1009.649	378.77
1009.918	384.06
1010.188	374.58
1010.458	369.83
1010.727	376.37
1010.996	373.24
1011.266	372.59
1011.535	372.43
1011.804	371.01
1012.073	373.32
1012.342	368.4
1012.611	369.18
1012.88	359.66
1013.149	371.09
1013.417	367.63
1013.686	363.24
1013.955	370.84
1014.223	368.2
1014.492	365.43
1014.76	364.17
1015.028	367.35
1015.296	368.24
1015.565	365.27
1015.833	367.47
1016.101	357.63
1016.368	354.21
1016.636	364.42
1016.904	358.15
1017.172	365.03
1017.439	364.82
1017.707	359.94
1017.974	357.46
1018.242	360.84
1018.509	356.04
1018.776	363.81
1019.044	354.45
1019.311	354.94
1019.578	358.93
1019.845	355.92
1020.112	356.81
1020.378	356.81
1020.645	356.81
