Data from 190621_Kr_34K_no_film_FLMS138901_11-00-47-152.txt Node
Date: Fri Jun 21 11:00:47 EDT 2019
User: pSAM
Spectrometer: FLMS13890
Trigger mode: 0
Integration Time (sec): 5.000000E-3
Scans to average: 1000
Electric dark correction enabled: true
Nonlinearity correction enabled: false
Boxcar width: 0
XAxis mode: Wavelengths
Number of Pixels in Spectrum: 2048
>>>>>Begin Spectral Data<<<<<
342.097	-61.29
342.483	-61.29
342.868	-61.29
343.254	-101.67
343.639	-102.98
344.025	-104.11
344.41	-99.04
344.796	-91.73
345.181	-80.75
345.567	-67.03
345.952	-52.19
346.337	-37.69
346.722	-18.01
347.107	-1.72
347.493	18.81
347.878	39.86
348.263	58.15
348.648	78.34
349.033	100.54
349.418	117.64
349.802	138.91
350.187	156.26
350.572	172.07
350.957	238.55
351.342	387.16
351.726	411.29
352.111	429.19
352.495	441.11
352.88	456.13
353.264	468.77
353.649	481.9
354.033	492.99
354.418	504.5
354.802	512.6
355.186	522.68
355.57	530.53
355.955	535.76
356.339	540.1
356.723	544.54
357.107	552.02
357.491	569.29
357.875	557.3
358.259	560.19
358.643	562.55
359.026	566.94
359.41	565.43
359.794	567.75
360.178	567.2
360.561	567.44
360.945	566.89
361.329	567.12
361.712	568.57
362.096	567.48
362.479	569.25
362.862	569.39
363.246	568.55
363.629	567.11
364.012	566.23
364.396	569.3
364.779	567.62
365.162	568.26
365.545	571.4
365.928	571.48
366.311	569.58
366.694	574.59
367.077	575.52
367.46	576.85
367.843	578.78
368.226	578.52
368.608	579.35
368.991	581.94
369.374	580.62
369.756	582.13
370.139	581.22
370.521	581.85
370.904	585.19
371.286	584.85
371.669	587.24
372.051	587.32
372.433	592.54
372.816	592.67
373.198	596.11
373.58	594.43
373.962	597.05
374.344	601.35
374.726	603.33
375.108	607.88
375.49	611.55
375.872	612.32
376.254	612.38
376.636	613.85
377.018	615.01
377.399	616.64
377.781	615.47
378.163	617.13
378.544	616.84
378.926	622.3
379.307	624.61
379.689	626.59
380.07	630.45
380.452	636.52
380.833	641.03
381.214	642.48
381.596	648.61
381.977	653.96
382.358	663.01
382.739	671.38
383.12	677.82
383.501	676.49
383.882	668.05
384.263	670.97
384.644	671.05
385.025	675.79
385.406	679.39
385.787	682.29
386.167	685.31
386.548	689.74
386.929	698.59
387.309	706.04
387.69	712.82
388.07	724.28
388.451	726.92
388.831	729.71
389.211	722.94
389.592	714.81
389.972	713.94
390.352	720.39
390.733	723.8
391.113	723.22
391.493	728.87
391.873	740.25
392.253	745.75
392.633	762.87
393.013	770.33
393.393	771.54
393.772	764.02
394.152	769.86
394.532	770.3
394.912	778.04
395.291	772.64
395.671	773.86
396.05	768.77
396.43	770.09
396.809	772.34
397.189	787.24
397.568	793.14
397.948	798.06
398.327	811.11
398.706	815.6
399.085	814.86
399.465	812.97
399.844	809.85
400.223	799.84
400.602	806.75
400.981	805.36
401.36	806.49
401.739	802.56
402.117	810.39
402.496	807.48
402.875	812.83
403.254	819.96
403.632	819.71
404.011	831.25
404.39	840.59
404.768	845.34
405.147	863.39
405.525	870.15
405.903	872.2
406.282	873.01
406.66	865.91
407.038	854.55
407.417	855.26
407.795	856.07
408.173	860.49
408.551	864.5
408.929	869.16
409.307	871.24
409.685	882.77
410.063	884.2
410.441	883.61
410.818	889.43
411.196	892.17
411.574	906.35
411.952	910.64
412.329	925.28
412.707	941.74
413.084	951.53
413.462	953.81
413.839	954.75
414.217	941.3
414.594	948.08
414.971	950.9
415.349	955.77
415.726	956.46
416.103	944.45
416.48	952.02
416.857	958.68
417.234	969.88
417.611	971.08
417.988	976.53
418.365	965.8
418.742	971.68
419.119	980.72
419.495	987.56
419.872	983.52
420.249	1015.18
420.625	1020.89
421.002	1039.02
421.379	1047.86
421.755	1066.53
422.131	1078.92
422.508	1082.05
422.884	1091.08
423.26	1093.57
423.637	1106.48
424.013	1076.36
424.389	1065.95
424.765	1060.97
425.141	1068.93
425.517	1063.32
425.893	1058.99
426.269	1059.73
426.645	1070.16
427.021	1109.17
427.397	1124.22
427.772	1131.02
428.148	1115.06
428.524	1119.55
428.899	1109.99
429.275	1129.68
429.651	1149.78
430.026	1169.06
430.401	1178
430.777	1173.62
431.152	1167.1
431.527	1155.15
431.903	1157.29
432.278	1155.03
432.653	1161.4
433.028	1171.91
433.403	1206.37
433.778	1241.33
434.153	1237.04
434.528	1220.94
434.903	1216.94
435.278	1233.5
435.653	1244.88
436.027	1247.48
436.402	1255.39
436.777	1265.93
437.151	1262.08
437.526	1274.3
437.9	1282.72
438.275	1308.03
438.649	1304.49
439.023	1311.1
439.398	1307.66
439.772	1306.38
440.146	1307.43
440.52	1337.59
440.895	1367.83
441.269	1407.47
441.643	1428.44
442.017	1416.71
442.391	1406.08
442.765	1405.42
443.138	1398.99
443.512	1420.61
443.886	1432.71
444.26	1433.61
444.633	1441.15
445.007	1440.67
445.38	1445.05
445.754	1447.81
446.127	1457.17
446.501	1453.8
446.874	1446
447.248	1442.95
447.621	1457.83
447.994	1456.57
448.367	1468.33
448.741	1474.63
449.114	1463.66
449.487	1476.46
449.86	1482.34
450.233	1483.06
450.606	1477.93
450.978	1472.99
451.351	1495.79
451.724	1481.75
452.097	1480.62
452.469	1496.3
452.842	1490.33
453.215	1498.68
453.587	1496.82
453.96	1512.44
454.332	1514.6
454.704	1528.39
455.077	1538.46
455.449	1550.43
455.821	1542.49
456.194	1566.4
456.566	1576.94
456.938	1599.02
457.31	1615.87
457.682	1650.44
458.054	1649.63
458.426	1666.4
458.798	1678.95
459.17	1683.08
459.541	1679.22
459.913	1665.08
460.285	1665.52
460.656	1669.91
461.028	1663.4
461.399	1683.35
461.771	1681.4
462.142	1699.4
462.514	1723.71
462.885	1753.49
463.256	1790.02
463.628	1813.77
463.999	1827.79
464.37	1886.83
464.741	1882.65
465.112	1870.87
465.483	1882.84
465.854	1896.05
466.225	1881.87
466.596	1870.61
466.967	1900.24
467.338	1902.36
467.708	1936.15
468.079	1953.14
468.45	1957.66
468.82	1958.37
469.191	1964.65
469.561	1965.58
469.932	1988.92
470.302	1983.68
470.673	2021.25
471.043	2035.57
471.413	2056.41
471.783	2088.02
472.154	2125.95
472.524	2160.24
472.894	2213.51
473.264	2239.56
473.634	2247.1
474.004	2241.34
474.374	2288.34
474.743	2301.22
475.113	2352.83
475.483	2375.45
475.853	2414.71
476.222	2437.66
476.592	2489.75
476.961	2475.9
477.331	2488.48
477.7	2534.14
478.07	2607.91
478.439	2604.84
478.808	2635.93
479.178	2669.27
479.547	2729.82
479.916	2752.45
480.285	2813.89
480.654	2826.24
481.023	2860.81
481.392	2890.22
481.761	2927.17
482.13	2965.7
482.499	3001.12
482.867	3032.8
483.236	3092.55
483.605	3171.32
483.973	3223.26
484.342	3294.44
484.71	3332.65
485.079	3550.61
485.447	4115.89
485.816	4485.32
486.184	4524.58
486.552	4040.82
486.921	3720.44
487.289	3588.56
487.657	3590.8
488.025	3596.59
488.393	3611.08
488.761	3650.55
489.129	3735.28
489.497	3770.32
489.865	3840.56
490.233	3854.26
490.6	3919.54
490.968	3910.2
491.336	3931.45
491.703	3945.75
492.071	3998.09
492.438	4051.26
492.806	4106.6
493.173	4167.45
493.541	4172.88
493.908	4172.81
494.275	4195.75
494.642	4209.29
495.01	4202.44
495.377	4225.65
495.744	4267.18
496.111	4344.64
496.478	4419.61
496.845	4415.04
497.211	4401.53
497.578	4448.39
497.945	4491.8
498.312	4567.36
498.678	4615.2
499.045	4678.93
499.412	4655.63
499.778	4678.26
500.145	4683.18
500.511	4704.06
500.878	4773.53
501.244	4818.61
501.61	4833.39
501.976	4814.13
502.343	4857.03
502.709	4919.53
503.075	4917.66
503.441	4929.3
503.807	4947.35
504.173	4946.05
504.539	4987.23
504.905	5021.94
505.27	5077.9
505.636	5090.89
506.002	5135.78
506.367	5142.48
506.733	5155.56
507.099	5141.34
507.464	5172.18
507.829	5191.18
508.195	5270.75
508.56	5275.73
508.926	5271.25
509.291	5281.59
509.656	5318.83
510.021	5327.89
510.386	5353.28
510.751	5398.54
511.116	5435.19
511.481	5453.45
511.846	5503.72
512.211	5526.52
512.576	5551.6
512.941	5564.79
513.305	5591.48
513.67	5622.5
514.035	5632.46
514.399	5672.97
514.764	5657.8
515.128	5686.49
515.493	5716.72
515.857	5726.87
516.221	5725.15
516.585	5772.76
516.95	5801.87
517.314	5829.47
517.678	5845.68
518.042	5857.21
518.406	5929.67
518.77	5925.96
519.134	5963.03
519.498	6009.68
519.862	6001.65
520.225	5975.23
520.589	6052.37
520.953	6097.81
521.316	6110.6
521.68	6100.36
522.043	6119.83
522.407	6129.45
522.77	6187.99
523.134	6269.94
523.497	6261.25
523.86	6297.31
524.223	6319.91
524.587	6344.22
524.95	6357.98
525.313	6427.06
525.676	6469.74
526.039	6478.81
526.402	6490.13
526.765	6544.64
527.127	6598.16
527.49	6644.18
527.853	6656.21
528.215	6661.61
528.578	6745.54
528.941	6764.31
529.303	6808.46
529.666	6832.45
530.028	6864.12
530.39	6881.87
530.753	6906.14
531.115	6948.15
531.477	6989.82
531.839	7029.36
532.201	7081.63
532.564	7163.72
532.926	7191.49
533.287	7269.28
533.649	7289.34
534.011	7324.34
534.373	7392.59
534.735	7446.87
535.097	7457.51
535.458	7484.07
535.82	7545.09
536.181	7555.35
536.543	7573.24
536.904	7559.4
537.266	7662.92
537.627	7751.25
537.988	7790.86
538.35	7843.57
538.711	7864.87
539.072	7904.51
539.433	7918.21
539.794	7981.67
540.155	7996.29
540.516	8022.67
540.877	8060.01
541.238	8116.01
541.599	8216.06
541.959	8244.91
542.32	8325.64
542.681	8355.62
543.041	8328.57
543.402	8371.19
543.762	8448.58
544.123	8429.05
544.483	8507.24
544.844	8566.2
545.204	8557.88
545.564	8545.27
545.924	8605.84
546.284	8627.74
546.644	8664.9
547.004	8729.03
547.364	8827.73
547.724	8883.8
548.084	8895.46
548.444	8934.41
548.804	8880.71
549.164	8928
549.523	8947.25
549.883	8977.69
550.242	9000.95
550.602	8994.87
550.961	9007.86
551.321	9007.56
551.68	9104.04
552.04	9128.89
552.399	9211.66
552.758	9218.33
553.117	9198.28
553.476	9301.97
553.835	9340.88
554.194	9338.48
554.553	9317.2
554.912	9366.12
555.271	9437.28
555.63	9483.79
555.989	9530.86
556.347	9562.49
556.706	9555.37
557.065	9544.57
557.423	9632.26
557.782	9669.47
558.14	9646.45
558.499	9655.21
558.857	9719.28
559.215	9750.5
559.573	9800.68
559.932	9799.79
560.29	9892.68
560.648	9899.28
561.006	9996.03
561.364	10029.07
561.722	10038.26
562.08	10106.55
562.438	10078.51
562.795	10143.88
563.153	10167.97
563.511	10160.22
563.868	10234.88
564.226	10303.91
564.583	10356.03
564.941	10325.02
565.298	10409.12
565.656	10358.79
566.013	10374.54
566.37	10457.12
566.727	10595.7
567.085	10703.9
567.442	10802.68
567.799	10908.58
568.156	10928.99
568.513	11018.46
568.87	11158.97
569.226	11438.2
569.583	11627.57
569.94	11681.74
570.297	11647.09
570.653	11646.14
571.01	11754.7
571.366	11991.39
571.723	12039.01
572.079	11970.6
572.436	11866.86
572.792	11928.54
573.148	12268.99
573.505	12522.06
573.861	12788.18
574.217	12695.79
574.573	12763.44
574.929	12687.11
575.285	12761.51
575.641	12806.24
575.997	12923.55
576.352	12985.56
576.708	13021.33
577.064	13162.77
577.42	13525.3
577.775	13768.53
578.131	13746.35
578.486	13473.11
578.842	13224.36
579.197	13443.82
579.552	13600.76
579.908	13952.54
580.263	13937.89
580.618	13796.81
580.973	14219.03
581.328	14944.02
581.683	15550.4
582.038	15342.92
582.393	14483.95
582.748	13872.74
583.103	13494.08
583.458	13356
583.812	13548.53
584.167	13886.74
584.522	14218.68
584.876	14321.63
585.231	14471.31
585.585	14373.73
585.939	14052.15
586.294	13935.98
586.648	13937.17
587.002	13967.32
587.356	14376.79
587.711	14615.4
588.065	14621.7
588.419	14535.1
588.773	14283.65
589.127	13915.86
589.48	13826.92
589.834	13710.71
590.188	13836.45
590.542	13814.89
590.895	13738.44
591.249	13840.7
591.603	13691.1
591.956	13754.17
592.309	14058.56
592.663	14322.39
593.016	14668.04
593.369	14630.36
593.723	14415.97
594.076	14330.36
594.429	14495.24
594.782	14784.58
595.135	15030.01
595.488	14927.58
595.841	14609.6
596.194	14381.03
596.547	14244.83
596.899	14268.27
597.252	14379.91
597.605	14474.35
597.957	14417.7
598.31	14437.19
598.662	14664.68
599.015	14710.58
599.367	14742.07
599.719	14594.95
600.072	14640.76
600.424	14670.19
600.776	14835.52
601.128	14907.44
601.48	14999.32
601.832	14868.78
602.184	14978.82
602.536	15129.43
602.888	15354.25
603.24	15563
603.592	15592.73
603.943	15350.57
604.295	15093.57
604.646	14930.07
604.998	15034.41
605.349	15131.86
605.701	15249.47
606.052	15265.32
606.404	15299.1
606.755	15350.91
607.106	15423.76
607.457	15220.82
607.808	15237.17
608.159	15231.77
608.51	15175.4
608.861	15220.27
609.212	15204.64
609.563	15442.46
609.914	15634.41
610.265	15648.49
610.615	15677.03
610.966	15695.12
611.316	15877.63
611.667	15823.48
612.017	15794.4
612.368	15562.07
612.718	15780.55
613.068	15831.36
613.419	15902.3
613.769	15869.71
614.119	15927.29
614.469	15909.42
614.819	15655.61
615.169	15679.4
615.519	15894.84
615.869	15876.56
616.219	15785.47
616.568	15744.11
616.918	15803.92
617.268	16006.86
617.617	16025.19
617.967	15979.73
618.316	15915.81
618.666	15826.19
619.015	15807.85
619.364	15881.72
619.714	16135.13
620.063	16223.49
620.412	16244.45
620.761	16088.46
621.11	16051.33
621.459	15969.13
621.808	16225.24
622.157	16420.43
622.506	16436.64
622.855	16531.25
623.203	16590.89
623.552	16526.51
623.901	16460.8
624.249	16345.22
624.598	16423.82
624.946	16315.39
625.295	16225.69
625.643	16311.53
625.991	16505.54
626.34	16426.82
626.688	16439.82
627.036	16653.96
627.384	16660.59
627.732	16783.43
628.08	16722.04
628.428	16580.83
628.776	16670.39
629.124	16715.29
629.471	16718.41
629.819	16796.87
630.167	16739.32
630.514	16753.52
630.862	16601.36
631.209	16678.75
631.557	16819.16
631.904	16792.38
632.251	16819.67
632.599	16690.29
632.946	16799.35
633.293	16861.79
633.64	16795.82
633.987	16771.77
634.334	16684.92
634.681	16704.84
635.028	16896.2
635.375	16969.88
635.722	17090.18
636.068	17163.43
636.415	17231.09
636.762	17251.92
637.108	17270.47
637.455	17167.11
637.801	17192.45
638.147	17344.35
638.494	17380.51
638.84	17527.62
639.186	17379.57
639.532	17400.91
639.878	17392.68
640.225	17410.74
640.571	17515.1
640.916	17481.62
641.262	17494.84
641.608	17537.98
641.954	17636.14
642.3	17700.04
642.645	17702.09
642.991	17703.74
643.337	17826.1
643.682	17882.49
644.028	17907.53
644.373	17916.78
644.718	17786.27
645.064	17740.05
645.409	17848.53
645.754	17950.75
646.099	17977.59
646.444	17912.34
646.789	18027.05
647.134	17988.53
647.479	18009.03
647.824	17979.05
648.169	17954.25
648.513	18048.06
648.858	18135.47
649.203	18220.52
649.547	18189.27
649.892	18174.91
650.236	18195.1
650.581	18253.8
650.925	18191.52
651.269	18089.38
651.613	18180.25
651.958	18155.18
652.302	18191.03
652.646	18122.16
652.99	18138.57
653.334	18326.84
653.678	18270.09
654.022	18406.3
654.365	18374.2
654.709	18335.51
655.053	18460.95
655.396	20306.68
655.74	33217.07
656.083	43475.07
656.427	45635.35
656.77	35488.56
657.114	23060.9
657.457	19786.76
657.8	18948.11
658.143	18688.06
658.486	18662.37
658.83	18662.18
659.173	18592.75
659.516	18666.27
659.858	18608.54
660.201	18580.91
660.544	18620.69
660.887	18669.59
661.229	18735.39
661.572	18627.52
661.915	18688.64
662.257	18654.62
662.6	18747.83
662.942	18699.47
663.284	18615.11
663.627	18639.07
663.969	18601.58
664.311	18589.43
664.653	18569.16
664.995	18592.79
665.337	18627.23
665.679	18650.82
666.021	18732.84
666.363	18574.37
666.705	18609.95
667.046	18559.15
667.388	18455.61
667.73	18496.05
668.071	18546.32
668.413	18473.75
668.754	18581.06
669.096	18518.52
669.437	18528.92
669.778	18466.46
670.119	18446.85
670.461	18400.24
670.802	18531.34
671.143	18477.61
671.484	18587.25
671.825	18566.52
672.165	18637.4
672.506	18661.68
672.847	18632.23
673.188	18692.35
673.528	18587.66
673.869	18529.9
674.21	18652.67
674.55	18680.19
674.89	18699.2
675.231	18719.04
675.571	18728.89
675.911	18651.85
676.252	18712.07
676.592	18756.77
676.932	18576.25
677.272	18404.91
677.612	18499.56
677.952	18551.97
678.292	18567.38
678.631	18561.91
678.971	18563.54
679.311	18785.13
679.651	18847.68
679.99	18869.22
680.33	18839.23
680.669	18738.17
681.009	18750.22
681.348	18809.71
681.687	18841.35
682.026	18842.43
682.366	18620.6
682.705	18652.14
683.044	18753
683.383	18720.47
683.722	18663.4
684.061	18565.16
684.4	18695.86
684.738	18776.74
685.077	18819.33
685.416	18912.44
685.754	19031.88
686.093	19044.22
686.431	19044.46
686.77	18836.74
687.108	18836.15
687.447	18797.05
687.785	18842.05
688.123	18763.02
688.461	18732.45
688.799	18610.98
689.137	18632.49
689.475	18722.86
689.813	18538.69
690.151	18601.8
690.489	18634.83
690.827	18712.32
691.164	18881.87
691.502	18883.35
691.84	18805.6
692.177	18792.1
692.515	18703.98
692.852	18540.06
693.189	18685.96
693.527	18723.59
693.864	18766.73
694.201	18795.93
694.538	18704.05
694.875	18592.88
695.212	18492.54
695.549	18608.74
695.886	18561.75
696.223	18572.59
696.56	18663.76
696.897	18574.12
697.233	18636.9
697.57	18594.13
697.906	18606.14
698.243	18562.32
698.579	18411.03
698.916	18539.93
699.252	18486.36
699.588	18464.27
699.924	18477.7
700.261	18447.55
700.597	18553.08
700.933	18568.68
701.269	18452.9
701.605	18531.87
701.941	18402.74
702.276	18377.85
702.612	18436.83
702.948	18532.49
703.283	18585.95
703.619	18556.96
703.954	18550.8
704.29	18475.26
704.625	18583.23
704.961	18580.68
705.296	18645.7
705.631	18406.92
705.966	18368.08
706.301	18388.88
706.637	18487.63
706.972	18771.72
707.306	18779.18
707.641	18641.69
707.976	18457.74
708.311	18507.39
708.646	18562.28
708.98	18545.66
709.315	18490.18
709.649	18412.55
709.984	18469.84
710.318	18326.51
710.653	18426.11
710.987	18503.66
711.321	18597.85
711.655	18521.84
711.989	18403.71
712.324	18390.66
712.658	18375.17
712.992	18456.84
713.325	18365.4
713.659	18439.21
713.993	18393.7
714.327	18503.36
714.66	18471.35
714.994	18266.04
715.328	18263.49
715.661	18346.16
715.994	18305.92
716.328	18083.49
716.661	18144.69
716.994	18208.5
717.328	18114.45
717.661	18065.77
717.994	18101.52
718.327	18192.05
718.66	18153.49
718.993	18141.82
719.325	18090.33
719.658	18097.17
719.991	18039.7
720.324	18019.97
720.656	17854.89
720.989	17872.89
721.321	17974.51
721.654	18039.27
721.986	17965.85
722.318	17960.13
722.651	18062.93
722.983	17915.37
723.315	17871.12
723.647	17846.12
723.979	17807.57
724.311	17828.03
724.643	17820.49
724.975	17816.2
725.307	17825.5
725.638	17921.65
725.97	17922.08
726.302	18162.53
726.633	18116.46
726.965	18049.48
727.296	17747.04
727.628	17490.61
727.959	17453.88
728.29	17656.82
728.621	17572.25
728.952	17673.7
729.284	17570.22
729.615	17519.28
729.945	17347.17
730.276	17363.94
730.607	17396.76
730.938	17396.06
731.269	17325.6
731.599	17292.92
731.93	17252.17
732.261	17121.95
732.591	17162.95
732.922	17136.2
733.252	17038.65
733.582	17071.78
733.912	17235.73
734.243	17332.08
734.573	17321.12
734.903	17333.02
735.233	17067.32
735.563	17026.74
735.893	17005.8
736.223	16890.79
736.552	16870.47
736.882	16813.88
737.212	16781.73
737.541	16806.06
737.871	16854.27
738.2	16711.83
738.53	16456.63
738.859	16443.68
739.188	16484.55
739.518	16481.53
739.847	16528.07
740.176	16457.31
740.505	16461.34
740.834	16413.29
741.163	16227.33
741.492	16163.47
741.821	16194.9
742.15	16104.37
742.478	16080.92
742.807	16060.89
743.136	16113.08
743.464	15949.49
743.793	15792.21
744.121	15653.37
744.449	15566.59
744.778	15604.2
745.106	15737.86
745.434	15708.81
745.762	15527.78
746.09	15542.37
746.418	15591.1
746.746	15509.12
747.074	15506.55
747.402	15617.48
747.73	15616.4
748.057	15616.02
748.385	15547.34
748.712	15525.73
749.04	15428.83
749.367	15360.16
749.695	15157.95
750.022	15303.57
750.349	15367.07
750.677	15375.3
751.004	15243.26
751.331	15156.44
751.658	15034.04
751.985	14864.28
752.312	14674.58
752.639	14620.27
752.966	14680.85
753.292	14649.47
753.619	14819.36
753.946	14807.81
754.272	14733.97
754.599	14754.84
754.925	14692.25
755.251	14645.86
755.578	14657.82
755.904	14601.8
756.23	14475.39
756.556	14447.65
756.882	14549.76
757.208	14443.67
757.534	14388.08
757.86	14319.81
758.186	14341.62
758.512	14304.7
758.838	14294.02
759.163	14213.01
759.489	14179.5
759.814	14089.97
760.14	14147.09
760.465	14089.25
760.791	13861.62
761.116	13884.78
761.441	13922.33
761.766	13982.65
762.092	13874.36
762.417	13691.69
762.742	13533.95
763.066	13466.83
763.391	13507.12
763.716	13525.58
764.041	13500.98
764.366	13456.54
764.69	13364.79
765.015	13432.4
765.339	13518.96
765.664	13525.41
765.988	13402.59
766.312	13220.49
766.637	13072.73
766.961	13044.72
767.285	13079.58
767.609	13024.39
767.933	12922.39
768.257	12950.45
768.581	12852.4
768.905	13027.89
769.229	13052.01
769.552	12944.49
769.876	12980.76
770.2	12921.04
770.523	12915.63
770.847	12743
771.17	12750.59
771.493	12773.51
771.817	12779.82
772.14	12595.51
772.463	12511.48
772.786	12508.16
773.109	12438.05
773.432	12508.15
773.755	12427.44
774.078	12387.09
774.401	12382.44
774.724	12381.65
775.046	12367.04
775.369	12290.71
775.692	12092.66
776.014	11915.17
776.336	11821.11
776.659	11857.09
776.981	11761.82
777.303	11675.06
777.626	11617.81
777.948	11626.23
778.27	11729.25
778.592	11793.5
778.914	11746.59
779.236	11570.04
779.557	11510.46
779.879	11536
780.201	11561.91
780.523	11682.9
780.844	11723.07
781.166	11778.61
781.487	11716.38
781.809	11666.19
782.13	11689.89
782.451	11614.11
782.772	11674.51
783.094	11594.77
783.415	11736.11
783.736	11840.97
784.057	11996.05
784.378	11983.12
784.698	11898.34
785.019	11811.56
785.34	11583
785.661	11716.83
785.981	11859.07
786.302	11934.53
786.622	11919.9
786.943	11917.15
787.263	11766.02
787.583	11792.48
787.903	11877.33
788.224	11912.48
788.544	11962.57
788.864	11824.23
789.184	11923.97
789.504	11937.98
789.824	11996.36
790.143	11994.94
790.463	11948.56
790.783	11841.15
791.102	11802.05
791.422	11877.13
791.741	11868.79
792.061	11831.28
792.38	11902.74
792.699	11867.96
793.019	11838.52
793.338	11760.73
793.657	11685.82
793.976	11784.49
794.295	11732.01
794.614	11776.16
794.933	11688.87
795.252	11693.41
795.57	11664.63
795.889	11697.22
796.208	11652.31
796.526	11467.75
796.845	11476.14
797.163	11483.99
797.482	11555.69
797.8	11572.39
798.118	11532.6
798.436	11488.96
798.754	11386.02
799.073	11304.05
799.391	11355.58
799.708	11424.69
800.026	11462.14
800.344	11424.8
800.662	11336.79
800.98	11211.18
801.297	11203.4
801.615	11302.67
801.932	11312.34
802.25	11144.52
802.567	10988.99
802.884	10937.06
803.202	10884.09
803.519	10931.14
803.836	11010.99
804.153	10986.31
804.47	10902.89
804.787	10716.27
805.104	10628.45
805.421	10716.45
805.737	10774.09
806.054	10770.54
806.371	10769.13
806.687	10814.75
807.004	10726.56
807.32	10704.52
807.637	10714.94
807.953	10680.16
808.269	10616.61
808.585	10555.15
808.902	10369.2
809.218	10333.6
809.534	10434.07
809.85	10486.53
810.165	10418.73
810.481	10388.46
810.797	10290.85
811.113	10220.98
811.428	10201.55
811.744	10245.32
812.059	10243.17
812.375	10178.41
812.69	10086.48
813.006	9993.29
813.321	10006.65
813.636	9977.76
813.951	10023.1
814.266	10024.01
814.581	9925.12
814.896	9806.36
815.211	9740.62
815.526	9744.74
815.841	9731.5
816.155	9799.19
816.47	9760.36
816.784	9694.75
817.099	9590.48
817.413	9602.99
817.728	9693.07
818.042	9656.35
818.356	9638.26
818.67	9561.56
818.985	9480.39
819.299	9352.7
819.613	9349.38
819.926	9319.99
820.24	9376.66
820.554	9379.59
820.868	9349.6
821.182	9205.6
821.495	9160.18
821.809	9071.99
822.122	9096.01
822.436	9156.84
822.749	9121.95
823.062	9032.09
823.376	8959.83
823.689	8882.06
824.002	8905.61
824.315	8905.71
824.628	8945.34
824.941	8960.62
825.254	8858.31
825.566	8746.56
825.879	8763.99
826.192	8756.88
826.504	8715.61
826.817	8695.18
827.129	8671.14
827.442	8615.21
827.754	8601.03
828.066	8593.37
828.379	8557.76
828.691	8590.61
829.003	8593.27
829.315	8626.99
829.627	8578.68
829.939	8506.71
830.251	8502.2
830.562	8470.42
830.874	8525.9
831.186	8483.89
831.497	8451.13
831.809	8357.55
832.12	8296.76
832.432	8227.31
832.743	8227.51
833.054	8219.45
833.365	8171.85
833.676	8135.05
833.988	8105.88
834.299	8042.88
834.61	8007.35
834.92	7997.84
835.231	8034.32
835.542	8031.54
835.853	7972.59
836.163	7893.57
836.474	7786.9
836.784	7713.42
837.095	7664.71
837.405	7635.36
837.715	7657.6
838.026	7673.27
838.336	7626.81
838.646	7606
838.956	7541.34
839.266	7535.06
839.576	7547.25
839.886	7607.57
840.195	7627.58
840.505	7593.57
840.815	7515.75
841.124	7400.93
841.434	7354.32
841.743	7313.28
842.053	7330.06
842.362	7309.35
842.671	7306.09
842.981	7311.83
843.29	7195.76
843.599	7147.88
843.908	7108.11
844.217	7121.46
844.526	7206.8
844.835	7221
845.143	7146.67
845.452	7057.1
845.761	7021.7
846.069	6940.68
846.378	7022.12
846.686	7020.1
846.995	6986.81
847.303	6902.4
847.611	6856.2
847.919	6762.51
848.227	6759.8
848.535	6742.34
848.843	6773.78
849.151	6777.28
849.459	6809.63
849.767	6724.74
850.075	6655.78
850.382	6596.02
850.69	6586.44
850.998	6616.74
851.305	6620.28
851.612	6634.7
851.92	6612.01
852.227	6536.73
852.534	6451.12
852.841	6396.5
853.148	6393.67
853.455	6489.01
853.762	6508.28
854.069	6534.96
854.376	6492.49
854.683	6415.67
854.99	6313.71
855.296	6268.45
855.603	6266.24
855.909	6303.14
856.216	6308.18
856.522	6267.62
856.828	6177.66
857.135	6075.79
857.441	6013.5
857.747	5974.21
858.053	6026.78
858.359	5993.73
858.665	6034.82
858.971	6002.65
859.276	5942.4
859.582	5885.29
859.888	5892.37
860.193	5871.36
860.499	5863.69
860.804	5875.93
861.11	5811.65
861.415	5781.37
861.72	5731.92
862.026	5620.67
862.331	5569.16
862.636	5530.58
862.941	5552.42
863.246	5576.38
863.551	5618.59
863.855	5627.48
864.16	5615.17
864.465	5588.2
864.769	5580.63
865.074	5569.48
865.378	5553.46
865.683	5534.94
865.987	5537.62
866.291	5472.8
866.596	5455.94
866.9	5400.14
867.204	5378.3
867.508	5371.99
867.812	5403.06
868.116	5439.97
868.42	5413.04
868.723	5348.47
869.027	5282.76
869.331	5209.59
869.634	5179.63
869.938	5154.95
870.241	5193.21
870.544	5188.44
870.848	5168.6
871.151	5111.64
871.454	5033.81
871.757	4959.33
872.06	4905.42
872.363	4882.06
872.666	4924.13
872.969	4934.87
873.272	4950.34
873.574	4945.98
873.877	4917.2
874.18	4852.7
874.482	4791.21
874.785	4775.06
875.087	4733.93
875.389	4757.14
875.692	4770
875.994	4783.81
876.296	4762.15
876.598	4727.22
876.9	4660.81
877.202	4623.76
877.504	4617.29
877.805	4616.54
878.107	4614.2
878.409	4553.38
878.71	4547.39
879.012	4520.67
879.313	4486.66
879.615	4504.82
879.916	4489.76
880.217	4478.57
880.518	4466.62
880.82	4459.63
881.121	4400.46
881.422	4353.23
881.723	4301.49
882.023	4253.98
882.324	4241.47
882.625	4211.26
882.926	4217.13
883.226	4277.01
883.527	4251.12
883.827	4218.93
884.128	4147.99
884.428	4107.48
884.728	4065.93
885.028	4067.87
885.328	4071.1
885.629	4054.89
885.929	4059.5
886.228	4012.12
886.528	3916.61
886.828	3848.33
887.128	3809.99
887.427	3781.52
887.727	3781.7
888.027	3779.57
888.326	3804.78
888.625	3829.58
888.925	3791.75
889.224	3786.59
889.523	3738.5
889.822	3692.05
890.121	3668.14
890.42	3657.37
890.719	3679.41
891.018	3663.14
891.317	3681.55
891.616	3654.71
891.914	3592.2
892.213	3542.96
892.512	3531.51
892.81	3547.34
893.108	3579.29
893.407	3618.26
893.705	3647.52
894.003	3620.13
894.301	3582.98
894.599	3532.69
894.897	3529.78
895.195	3542.21
895.493	3535.45
895.791	3576.59
896.089	3597.49
896.386	3580.05
896.684	3581.75
896.981	3540.3
897.279	3509.48
897.576	3509.57
897.874	3465.54
898.171	3492.92
898.468	3504.6
898.765	3511.4
899.062	3538.62
899.359	3525.07
899.656	3509.24
899.953	3475.28
900.25	3453.21
900.547	3437.7
900.843	3439.17
901.14	3461.62
901.436	3463.99
901.733	3460.37
902.029	3442.41
902.325	3416.67
902.622	3368.11
902.918	3352.31
903.214	3352.21
903.51	3330.94
903.806	3346.82
904.102	3348.9
904.398	3358.51
904.694	3340.72
904.989	3357.61
905.285	3324.16
905.581	3300.14
905.876	3318.22
906.171	3328.79
906.467	3354.07
906.762	3386.34
907.057	3378.22
907.353	3373.08
907.648	3315.09
907.943	3263.98
908.238	3220.23
908.533	3178.45
908.827	3171.65
909.122	3191.65
909.417	3216.28
909.711	3233.89
910.006	3212.38
910.301	3165.63
910.595	3159.3
910.889	3166.62
911.184	3128.1
911.478	3134.3
911.772	3143.05
912.066	3139.98
912.36	3139.17
912.654	3119.95
912.948	3093.57
913.242	3082.49
913.536	3035.01
913.829	3016.37
914.123	3009.38
914.416	2986.32
914.71	2993.95
915.003	3015.08
915.297	2996.34
915.59	2963.9
915.883	2925.04
916.176	2895.46
916.469	2862.02
916.762	2840.37
917.055	2823.66
917.348	2817.09
917.641	2832.5
917.934	2841.58
918.226	2834.07
918.519	2802.79
918.811	2759.46
919.104	2712.08
919.396	2671.28
919.689	2642.46
919.981	2638.87
920.273	2656.11
920.565	2679.89
920.857	2678.46
921.149	2673.62
921.441	2639.09
921.733	2601.14
922.025	2565.97
922.316	2546.46
922.608	2553.98
922.9	2553.62
923.191	2556.5
923.483	2568.58
923.774	2546.46
924.065	2532.59
924.357	2509.32
924.648	2464.05
924.939	2437.82
925.23	2414.78
925.521	2400.07
925.812	2387.48
926.102	2381.65
926.393	2376.17
926.684	2373.72
926.975	2355.03
927.265	2331.32
927.556	2309.68
927.846	2290.99
928.136	2278.66
928.427	2263.51
928.717	2246.6
929.007	2230.2
929.297	2204.02
929.587	2186.61
929.877	2175.65
930.167	2163.96
930.457	2135.6
930.746	2093.94
931.036	2073.09
931.325	2045.83
931.615	2044.54
931.904	2051.51
932.194	2043.64
932.483	2036.2
932.772	2039.38
933.062	2022.29
933.351	1990.94
933.64	1941.74
933.929	1921.13
934.218	1906.54
934.506	1909.07
934.795	1909.01
935.084	1911.02
935.372	1902.54
935.661	1887.85
935.949	1864.33
936.238	1839.45
936.526	1804.61
936.815	1777.95
937.103	1770.99
937.391	1767.11
937.679	1764.58
937.967	1758.97
938.255	1750.27
938.543	1744.69
938.831	1725.47
939.118	1712.76
939.406	1691.26
939.693	1664.83
939.981	1643.5
940.268	1631.84
940.556	1617.18
940.843	1609.07
941.13	1609.43
941.418	1606.47
941.705	1590.81
941.992	1569.75
942.279	1541.83
942.566	1521.36
942.852	1504.44
943.139	1495.42
943.426	1481.91
943.712	1480.16
943.999	1473.44
944.285	1473.11
944.572	1466.39
944.858	1458.71
945.144	1443.42
945.431	1418.78
945.717	1401.17
946.003	1392.92
946.289	1381.96
946.575	1377.03
946.861	1367.84
947.146	1364.45
947.432	1356.88
947.718	1337.15
948.003	1314.48
948.289	1295.7
948.574	1277.04
948.86	1261.72
949.145	1255.17
949.43	1248.37
949.715	1249.56
950	1246.6
950.285	1249.63
950.57	1250.1
950.855	1246.65
951.14	1232.78
951.425	1219.1
951.709	1196.5
951.994	1177.63
952.278	1164.51
952.563	1150.85
952.847	1137.86
953.132	1133.3
953.416	1136.53
953.7	1132.01
953.984	1121.93
954.268	1108.79
954.552	1094.41
954.836	1079.35
955.12	1069.82
955.404	1062.91
955.687	1057.53
955.971	1055.26
956.254	1052.79
956.538	1047.02
956.821	1042.1
957.105	1030.72
957.388	1020.37
957.671	1005.62
957.954	994.03
958.237	980.61
958.52	966.36
958.803	959.38
959.086	952.56
959.369	947.16
959.652	944.64
959.934	941.48
960.217	933.36
960.499	927.86
960.782	918.3
961.064	905.36
961.346	901.42
961.629	892.38
961.911	886.63
962.193	886.81
962.475	883.04
962.757	878.8
963.039	874.09
963.32	869.54
963.602	859.11
963.884	846.38
964.165	840.55
964.447	831.22
964.728	818.69
965.01	815.52
965.291	809.68
965.572	805.49
965.853	807.95
966.134	801.91
966.415	795.84
966.696	787.73
966.977	775.05
967.258	769.13
967.539	757.02
967.819	750.75
968.1	745.22
968.38	739.64
968.661	734.92
968.941	729.96
969.222	731.48
969.502	730.73
969.782	726.27
970.062	722.57
970.342	716.23
970.622	711.86
970.902	704.33
971.182	697.01
971.462	688.67
971.741	685.03
972.021	682.86
972.3	674.22
972.58	670.03
972.859	667.81
973.138	663.14
973.418	655.9
973.697	647.41
973.976	641.51
974.255	634.65
974.534	627.4
974.813	621.67
975.092	621.32
975.37	619.51
975.649	617.96
975.928	615.93
976.206	614.55
976.485	608.02
976.763	602.14
977.041	593.88
977.32	588.89
977.598	582.02
977.876	577.87
978.154	576.58
978.432	573.5
978.71	571.14
978.988	569.72
979.265	564.37
979.543	560.44
979.821	554.95
980.098	551.12
980.376	545.66
980.653	540.83
980.93	536.75
981.208	534.69
981.485	532.51
981.762	529.61
982.039	528.87
982.316	526.57
982.593	523.34
982.87	520.82
983.146	518.35
983.423	513.55
983.7	510.62
983.976	507.87
984.253	504.1
984.529	502.45
984.805	495.47
985.082	493.97
985.358	489.67
985.634	485.75
985.91	484.03
986.186	481.26
986.462	478.41
986.738	474.19
987.013	471.48
987.289	467.61
987.565	466.18
987.84	462.41
988.116	460.07
988.391	459.26
988.666	457.89
988.942	457.7
989.217	456.21
989.492	455.14
989.767	452.05
990.042	448.4
990.317	443.64
990.592	442.35
990.866	440.78
991.141	439.4
991.416	434.93
991.69	434.52
991.964	430.54
992.239	432.32
992.513	430.76
992.787	428.82
993.062	427.72
993.336	426.34
993.61	423.17
993.884	424.88
994.158	422.36
994.431	420.59
994.705	418.29
994.979	417.92
995.252	414.14
995.526	415.19
995.799	414.64
996.073	413.71
996.346	412.42
996.619	411.16
996.892	406.91
997.165	408.02
997.438	406.46
997.711	403.97
997.984	401.51
998.257	403.25
998.53	401.36
998.802	400.54
999.075	399.49
999.347	398.22
999.62	396.8
999.892	396.33
1000.165	395.05
1000.437	395.79
1000.709	391.6
1000.981	393.07
1001.253	389.47
1001.525	388.9
1001.797	390.32
1002.068	388.97
1002.34	387.05
1002.612	386.5
1002.883	384.43
1003.155	387.23
1003.426	382.24
1003.698	384.42
1003.969	383.43
1004.24	381.38
1004.511	382
1004.782	379.19
1005.053	379.39
1005.324	379.49
1005.595	376.34
1005.866	374.78
1006.136	375.53
1006.407	374.7
1006.678	373.97
1006.948	373.22
1007.218	374.99
1007.489	375.61
1007.759	375.12
1008.029	372.42
1008.299	372.36
1008.569	372.79
1008.839	370.88
1009.109	371
1009.379	371.89
1009.649	368.91
1009.918	371.04
1010.188	368.49
1010.458	370.78
1010.727	368.86
1010.996	367.15
1011.266	366.28
1011.535	368.23
1011.804	366.86
1012.073	364.05
1012.342	367.04
1012.611	366.45
1012.88	365.13
1013.149	364.92
1013.417	363.64
1013.686	363.7
1013.955	364.12
1014.223	365.18
1014.492	364.47
1014.76	364.09
1015.028	365.51
1015.296	366.73
1015.565	363.33
1015.833	363.14
1016.101	361.97
1016.368	363.52
1016.636	360.53
1016.904	361.04
1017.172	360.95
1017.439	362.04
1017.707	361.38
1017.974	360.11
1018.242	362.16
1018.509	361.59
1018.776	362.11
1019.044	360.79
1019.311	360.8
1019.578	360.94
1019.845	360.74
1020.112	358.93
1020.378	358.93
1020.645	358.93
