Data from 190715_Ar_24K_film_FLMS138901_13-53-56-495.txt Node
Date: Mon Jul 15 13:53:56 EDT 2019
User: pSAM
Spectrometer: FLMS13890
Trigger mode: 0
Integration Time (sec): 5.000000E-3
Scans to average: 1000
Electric dark correction enabled: true
Nonlinearity correction enabled: false
Boxcar width: 0
XAxis mode: Wavelengths
Number of Pixels in Spectrum: 2048
>>>>>Begin Spectral Data<<<<<
342.097	-61.79
342.483	-61.79
342.868	-61.79
343.254	-101
343.639	-104.76
344.025	-104
344.41	-100.36
344.796	-91.35
345.181	-81.73
345.567	-68.16
345.952	-54.34
346.337	-35.27
346.722	-16.94
347.107	-0.45
347.493	20.69
347.878	40.78
348.263	57.79
348.648	78.69
349.033	99.21
349.418	117.36
349.802	138.1
350.187	154.86
350.572	172.02
350.957	190.72
351.342	208.87
351.726	222.44
352.111	236.63
352.495	250.41
352.88	264.47
353.264	274.75
353.649	284.81
354.033	294.47
354.418	303.65
354.802	311.57
355.186	319.16
355.57	323.95
355.955	328.76
356.339	332.06
356.723	334.32
357.107	338.3
357.491	354.83
357.875	344.58
358.259	343.97
358.643	344.15
359.026	343.13
359.41	343.66
359.794	343.89
360.178	342.82
360.561	341.36
360.945	340.58
361.329	338.93
361.712	339.11
362.096	335.07
362.479	334.12
362.862	332.37
363.246	332.23
363.629	328.92
364.012	325.76
364.396	325.79
364.779	325.2
365.162	323.64
365.545	321.42
365.928	322.35
366.311	317.62
366.694	319.47
367.077	319.08
367.46	317.95
367.843	315.92
368.226	314.29
368.608	315.64
368.991	313.42
369.374	316.35
369.756	314.66
370.139	316.2
370.521	313.76
370.904	313.85
371.286	314.5
371.669	315
372.051	314.26
372.433	316.7
372.816	315.94
373.198	316.84
373.58	314.71
373.962	316.68
374.344	317.97
374.726	317.98
375.108	316.88
375.49	319.29
375.872	318.46
376.254	318.9
376.636	320.03
377.018	320.19
377.399	321.38
377.781	321
378.163	320.51
378.544	321.49
378.926	324.1
379.307	322.9
379.689	324.02
380.07	325.61
380.452	326.98
380.833	325.63
381.214	326.24
381.596	324.83
381.977	327.28
382.358	327.47
382.739	330.16
383.12	328.63
383.501	327.89
383.882	329.54
384.263	327.44
384.644	330.69
385.025	330.61
385.406	330.71
385.787	333.03
386.167	332.93
386.548	331.86
386.929	333.74
387.309	332.54
387.69	334.9
388.07	333.94
388.451	332.35
388.831	334.8
389.211	334.68
389.592	335.89
389.972	334.38
390.352	335.45
390.733	336.18
391.113	337.39
391.493	337.18
391.873	337.94
392.253	336.88
392.633	339.69
393.013	340.05
393.393	340.2
393.772	341.1
394.152	338.97
394.532	339.36
394.912	340.9
395.291	342.4
395.671	341.27
396.05	340.11
396.43	341.51
396.809	340.7
397.189	342.43
397.568	343.82
397.948	342.19
398.327	343.16
398.706	343.31
399.085	346.11
399.465	344.83
399.844	343.21
400.223	345.7
400.602	343.78
400.981	345.3
401.36	345.06
401.739	346.56
402.117	347.22
402.496	344.91
402.875	346.06
403.254	347.7
403.632	347.74
404.011	348.86
404.39	352.39
404.768	352.65
405.147	353.28
405.525	351.55
405.903	350.28
406.282	350.42
406.66	349.16
407.038	350.69
407.417	349.81
407.795	351.03
408.173	350.12
408.551	350.68
408.929	351.96
409.307	351.82
409.685	352.35
410.063	352.9
410.441	352.79
410.818	352.16
411.196	353.19
411.574	354.48
411.952	354.96
412.329	353.96
412.707	357.21
413.084	355.49
413.462	354.54
413.839	359.2
414.217	355.22
414.594	356.27
414.971	357.64
415.349	357.41
415.726	359.33
416.103	358.71
416.48	357.01
416.857	357.83
417.234	358.31
417.611	359.36
417.988	359.92
418.365	358.94
418.742	358.07
419.119	359.35
419.495	358.79
419.872	359.86
420.249	366.64
420.625	363.33
421.002	361.35
421.379	363.6
421.755	362.85
422.131	361.48
422.508	364.17
422.884	362.38
423.26	363.58
423.637	365.25
424.013	363.05
424.389	363.42
424.765	364.9
425.141	365.07
425.517	364.7
425.893	365.62
426.269	364.75
426.645	366.33
427.021	366.99
427.397	366.97
427.772	365.71
428.148	366.09
428.524	366.66
428.899	367.19
429.275	366.71
429.651	368.3
430.026	369.78
430.401	370.4
430.777	367.7
431.152	368.92
431.527	370.1
431.903	369.06
432.278	369.17
432.653	369.75
433.028	369.7
433.403	370.86
433.778	372.44
434.153	371.29
434.528	372.19
434.903	378.97
435.278	390.32
435.653	399
436.027	399.86
436.402	389.71
436.777	384.26
437.151	379.64
437.526	374.26
437.9	375.28
438.275	375.46
438.649	375.95
439.023	376.97
439.398	373.83
439.772	376.56
440.146	375.91
440.52	377.59
440.895	377.54
441.269	377.05
441.643	379.53
442.017	378.44
442.391	377.53
442.765	379.12
443.138	376.99
443.512	378.81
443.886	379.9
444.26	377.63
444.633	378.57
445.007	379.04
445.38	380.79
445.754	380.33
446.127	381.26
446.501	379.76
446.874	382.75
447.248	380.61
447.621	380.91
447.994	381.76
448.367	381.64
448.741	382.71
449.114	382.78
449.487	381.82
449.86	382.08
450.233	384.32
450.606	382.83
450.978	382.59
451.351	385.85
451.724	382.78
452.097	384.57
452.469	384
452.842	383.2
453.215	384.37
453.587	383.46
453.96	382.79
454.332	385.2
454.704	384.83
455.077	384.62
455.449	386.11
455.821	385.76
456.194	384.55
456.566	384.86
456.938	384.86
457.31	386.72
457.682	384.95
458.054	385.41
458.426	386.63
458.798	387.12
459.17	387.67
459.541	387.06
459.913	386.08
460.285	389.28
460.656	386.46
461.028	385.1
461.399	385.61
461.771	387.02
462.142	388.36
462.514	388.2
462.885	387.39
463.256	390.05
463.628	388
463.999	390.32
464.37	389.81
464.741	391.99
465.112	390.95
465.483	389.58
465.854	391.13
466.225	390.3
466.596	389.65
466.967	390.19
467.338	389.85
467.708	389.23
468.079	391.66
468.45	390.73
468.82	390.3
469.191	392.36
469.561	391.91
469.932	392.06
470.302	391.84
470.673	393.16
471.043	391.87
471.413	392.53
471.783	393.28
472.154	393.92
472.524	394.76
472.894	394.65
473.264	394.35
473.634	396.53
474.004	396.26
474.374	396.38
474.743	395.93
475.113	398.26
475.483	397.93
475.853	399.11
476.222	398.24
476.592	398.9
476.961	398.93
477.331	398.57
477.7	399.05
478.07	400.71
478.439	401.15
478.808	402.62
479.178	401.4
479.547	401.87
479.916	403.53
480.285	404.69
480.654	405.58
481.023	405.04
481.392	407.98
481.761	406.88
482.13	406.27
482.499	408.72
482.867	410.74
483.236	412.06
483.605	413.62
483.973	414.6
484.342	417.92
484.71	419.35
485.079	424.61
485.447	434.77
485.816	440.87
486.184	441.67
486.552	435.86
486.921	434
487.289	433.23
487.657	429.51
488.025	431.27
488.393	429.01
488.761	432.33
489.129	432.2
489.497	434.01
489.865	431.78
490.233	433.25
490.6	433.33
490.968	433.4
491.336	431.87
491.703	435.93
492.071	433.53
492.438	433.65
492.806	433.04
493.173	434.54
493.541	434.39
493.908	433.64
494.275	432.28
494.642	431.5
495.01	432.87
495.377	433.15
495.744	433.96
496.111	435.59
496.478	435.88
496.845	433.71
497.211	435.54
497.578	433.79
497.945	433.32
498.312	434.86
498.678	434.87
499.045	436.37
499.412	434.59
499.778	433.44
500.145	435.15
500.511	433.58
500.878	434.18
501.244	434.62
501.61	434.34
501.976	432.54
502.343	434.38
502.709	434.66
503.075	432.43
503.441	432.5
503.807	433.87
504.173	432.48
504.539	435.63
504.905	435.58
505.27	435.71
505.636	435.45
506.002	436.22
506.367	434.41
506.733	438.08
507.099	435
507.464	438.17
507.829	437.88
508.195	439.2
508.56	437.2
508.926	436.93
509.291	436.01
509.656	439.87
510.021	439.71
510.386	439.39
510.751	439.12
511.116	438.17
511.481	438.31
511.846	442.54
512.211	441.52
512.576	440.75
512.941	441.57
513.305	441.54
513.67	441.27
514.035	441.34
514.399	443.14
514.764	441.75
515.128	444.81
515.493	444.52
515.857	444.4
516.221	446.52
516.585	443.74
516.95	446.61
517.314	445.35
517.678	446.52
518.042	445.7
518.406	444.95
518.77	446.3
519.134	447.71
519.498	449.63
519.862	448.19
520.225	448.02
520.589	447.56
520.953	448.93
521.316	448.86
521.68	449.61
522.043	451.18
522.407	449.95
522.77	450.88
523.134	451.12
523.497	449.86
523.86	451.97
524.223	452.44
524.587	453.62
524.95	453.29
525.313	453.74
525.676	452.57
526.039	453.34
526.402	453.99
526.765	455.66
527.127	454.75
527.49	456.44
527.853	456.8
528.215	457.1
528.578	457.92
528.941	456.93
529.303	459.61
529.666	458.09
530.028	459.79
530.39	462
530.753	461.32
531.115	459.21
531.477	459.56
531.839	462.01
532.201	465.78
532.564	463.17
532.926	466.21
533.287	467.87
533.649	467.93
534.011	468.78
534.373	469
534.735	469.18
535.097	469.25
535.458	471.34
535.82	470.76
536.181	471.14
536.543	473.18
536.904	473.79
537.266	476.32
537.627	478.7
537.988	480.78
538.35	486.71
538.711	489.37
539.072	492
539.433	493.97
539.794	500.03
540.155	507.67
540.516	513.27
540.877	525.13
541.238	537.7
541.599	562.06
541.959	586.18
542.32	609.78
542.681	623.26
543.041	629.01
543.402	633.31
543.762	633.45
544.123	629.87
544.483	624.43
544.844	616.91
545.204	616.26
545.564	630.85
545.924	636.95
546.284	633.46
546.644	601.42
547.004	568.41
547.364	546.34
547.724	534.97
548.084	530.19
548.444	527.68
548.804	530.05
549.164	529.77
549.523	529.05
549.883	529.48
550.242	525.48
550.602	526.1
550.961	522.95
551.321	521.23
551.68	520.41
552.04	521.99
552.399	523.02
552.758	521.95
553.117	519.57
553.476	517.12
553.835	514.72
554.194	511.9
554.553	508.96
554.912	508.27
555.271	505.33
555.63	504.54
555.989	505.72
556.347	504.82
556.706	502.95
557.065	504.35
557.423	504.08
557.782	505.46
558.14	503.61
558.499	505.11
558.857	506.8
559.215	505.93
559.573	506.1
559.932	505.86
560.29	507.33
560.648	509.62
561.006	507.91
561.364	507.39
561.722	509.16
562.08	510.6
562.438	509.21
562.795	511.63
563.153	513.55
563.511	513.33
563.868	514.2
564.226	513.41
564.583	513.65
564.941	515.23
565.298	515.33
565.656	514.6
566.013	514.23
566.37	516.24
566.727	517.58
567.085	520.7
567.442	522.74
567.799	524.61
568.156	522.77
568.513	526.86
568.87	527.11
569.226	530.55
569.583	534.31
569.94	536.24
570.297	537.26
570.653	538.21
571.01	536.81
571.366	544.13
571.723	543.2
572.079	542.63
572.436	542.5
572.792	543.13
573.148	549.06
573.505	552.03
573.861	554.26
574.217	555.68
574.573	558.01
574.929	555.73
575.285	557.66
575.641	559.64
575.997	562.32
576.352	568.59
576.708	571.37
577.064	579.64
577.42	585.31
577.775	585.06
578.131	580.7
578.486	581.15
578.842	582.93
579.197	587.26
579.552	594.53
579.908	599
580.263	599.87
580.618	602.13
580.973	605.32
581.328	612.99
581.683	620.88
582.038	622.58
582.393	613.1
582.748	606.33
583.103	604.17
583.458	601.58
583.812	607.64
584.167	614.56
584.522	618.43
584.876	618.08
585.231	616.78
585.585	612.13
585.939	609.15
586.294	605.13
586.648	611.87
587.002	617
587.356	631
587.711	635.45
588.065	635.67
588.419	629.96
588.773	621.94
589.127	610.49
589.48	609.57
589.834	602.02
590.188	599.9
590.542	600.49
590.895	598.94
591.249	599.61
591.603	597.65
591.956	598.83
592.309	604.24
592.663	610.59
593.016	618.69
593.369	621.5
593.723	615.32
594.076	612.4
594.429	607.07
594.782	611.51
595.135	609.11
595.488	605.27
595.841	602.78
596.194	600.64
596.547	596.38
596.899	595.76
597.252	598.47
597.605	598.97
597.957	598.47
598.31	599.65
598.662	604.27
599.015	610.63
599.367	612.08
599.719	611.29
600.072	613.7
600.424	615.18
600.776	614.29
601.128	610.74
601.48	611.2
601.832	610.8
602.184	610.81
602.536	611.24
602.888	614.57
603.24	617
603.592	616.99
603.943	612.85
604.295	612.38
604.646	611.31
604.998	611.41
605.349	613.35
605.701	615.18
606.052	616.52
606.404	616.53
606.755	616.33
607.106	620.65
607.457	619.54
607.808	621.93
608.159	621.62
608.51	625.25
608.861	627.63
609.212	633.95
609.563	644.33
609.914	659.3
610.265	684.35
610.615	731.92
610.966	793.91
611.316	849.12
611.667	868.88
612.017	850.58
612.368	805.9
612.718	768.89
613.068	738.2
613.419	720.61
613.769	707.95
614.119	700.27
614.469	695.77
614.819	689.01
615.169	685.67
615.519	678.3
615.869	670.69
616.219	661.5
616.568	655.54
616.918	653.59
617.268	651.95
617.617	650.97
617.967	650.59
618.316	649.03
618.666	648.41
619.015	649.51
619.364	650.03
619.714	658.46
620.063	659.77
620.412	662.21
620.761	660.61
621.11	662.32
621.459	658.18
621.808	659.74
622.157	659.88
622.506	659.64
622.855	661.24
623.203	659.86
623.552	658.47
623.901	658.46
624.249	657.73
624.598	658.51
624.946	658.2
625.295	654.27
625.643	653.3
625.991	653.73
626.34	651.6
626.688	652.24
627.036	654.13
627.384	654.24
627.732	657.1
628.08	655.47
628.428	656.04
628.776	652.67
629.124	655.65
629.471	658.57
629.819	658.8
630.167	665.58
630.514	669.56
630.862	672.18
631.209	675.81
631.557	675.66
631.904	673.12
632.251	670.06
632.599	662.48
632.946	659.66
633.293	656.35
633.64	654.98
633.987	651.98
634.334	652.39
634.681	652.99
635.028	655.51
635.375	657.33
635.722	655.72
636.068	659.46
636.415	659.43
636.762	659.96
637.108	660.65
637.455	660.46
637.801	660.13
638.147	660.9
638.494	660.75
638.84	665.45
639.186	662.65
639.532	661.72
639.878	664.31
640.225	663.6
640.571	666.25
640.916	664.19
641.262	666.78
641.608	668.32
641.954	666.6
642.3	668.55
642.645	668
642.991	669.04
643.337	669.8
643.682	672.59
644.028	672.87
644.373	675.65
644.718	672.49
645.064	676.49
645.409	674.46
645.754	676.79
646.099	675.68
646.444	677.53
646.789	678.37
647.134	676.6
647.479	679.73
647.824	681.08
648.169	681.15
648.513	682.69
648.858	684.76
649.203	689.78
649.547	686.5
649.892	689.88
650.236	689.14
650.581	693.22
650.925	693.18
651.269	695.07
651.613	695.96
651.958	692.86
652.302	695.08
652.646	693.56
652.99	690.38
653.334	692.74
653.678	692.31
654.022	697.09
654.365	696.09
654.709	696.11
655.053	699.52
655.396	751.05
655.74	942.46
656.083	1099.59
656.427	1170.18
656.77	1057.25
657.114	891.97
657.457	790.52
657.8	735.44
658.143	713.81
658.486	705.66
658.83	703.64
659.173	700.54
659.516	703.15
659.858	699.39
660.201	701
660.544	700.91
660.887	700.14
661.229	701.43
661.572	702.55
661.915	705
662.257	705.61
662.6	709.53
662.942	709.21
663.284	706.89
663.627	707.17
663.969	706.43
664.311	709.01
664.653	709.57
664.995	710.97
665.337	709.65
665.679	707.73
666.021	709.12
666.363	707.43
666.705	710.89
667.046	708.98
667.388	707.58
667.73	712.05
668.071	713.61
668.413	713.26
668.754	711.78
669.096	712.24
669.437	715.66
669.778	715.3
670.119	717.46
670.461	713.16
670.802	716.45
671.143	715.67
671.484	716.62
671.825	718.75
672.165	720.82
672.506	719.56
672.847	720.84
673.188	720.82
673.528	718.63
673.869	720.2
674.21	719.9
674.55	718.57
674.89	719.03
675.231	720.72
675.571	721.81
675.911	723.62
676.252	723.86
676.592	726.01
676.932	724.14
677.272	722.15
677.612	725.46
677.952	725.14
678.292	725.79
678.631	727.82
678.971	725.3
679.311	728.5
679.651	730.26
679.99	732.07
680.33	731.36
680.669	731.78
681.009	729.6
681.348	730.37
681.687	731.63
682.026	732.54
682.366	732.57
682.705	733.92
683.044	733.25
683.383	733.95
683.722	733.86
684.061	734.19
684.4	735.58
684.738	739.23
685.077	737.22
685.416	741.1
685.754	740.71
686.093	742.5
686.431	744.14
686.77	742.42
687.108	742.41
687.447	741.27
687.785	744.49
688.123	743.36
688.461	746.57
688.799	744.07
689.137	743.68
689.475	743.78
689.813	741.95
690.151	745.97
690.489	744.86
690.827	744.02
691.164	744.84
691.502	747.12
691.84	743.57
692.177	746.79
692.515	746.68
692.852	745.49
693.189	747.32
693.527	748.72
693.864	747.96
694.201	749.78
694.538	747.99
694.875	750.43
695.212	747.02
695.549	753.12
695.886	748.78
696.223	750.44
696.56	750.03
696.897	749.85
697.233	752.14
697.57	753.38
697.906	757.56
698.243	754.16
698.579	752.71
698.916	753.45
699.252	753.4
699.588	754.4
699.924	757.2
700.261	754.28
700.597	755.8
700.933	758.49
701.269	755.14
701.605	756.39
701.941	755.78
702.276	757.71
702.612	756.26
702.948	759.99
703.283	760.92
703.619	761.74
703.954	758.21
704.29	761.05
704.625	765.07
704.961	763.13
705.296	763.47
705.631	761.66
705.966	762.41
706.301	766.39
706.637	771.6
706.972	774.24
707.306	778.94
707.641	778.43
707.976	775.68
708.311	778.73
708.646	778.08
708.98	777.52
709.315	777.07
709.649	779.13
709.984	776.87
710.318	773.53
710.653	771.97
710.987	771.88
711.321	769.78
711.655	770.21
711.989	772.13
712.324	774.35
712.658	778.98
712.992	780.83
713.325	779.73
713.659	780.81
713.993	777.81
714.327	776.18
714.66	779.51
714.994	773.89
715.328	774.2
715.661	776.81
715.994	777.73
716.328	774.3
716.661	772.89
716.994	773.67
717.328	771.61
717.661	771.17
717.994	773.31
718.327	774.92
718.66	773.38
718.993	776
719.325	778.79
719.658	776.63
719.991	775.36
720.324	776.6
720.656	774.55
720.989	775.97
721.321	778
721.654	779.2
721.986	778.29
722.318	775.65
722.651	774.91
722.983	774.4
723.315	778.23
723.647	778.31
723.979	778.11
724.311	780.09
724.643	783.18
724.975	783.91
725.307	783.24
725.638	786.66
725.97	782.72
726.302	786.81
726.633	782.62
726.965	782.67
727.296	782.55
727.628	783.33
727.959	783.06
728.29	781.13
728.621	778.65
728.952	784.26
729.284	782.55
729.615	781.13
729.945	780.25
730.276	779.45
730.607	779.77
730.938	782.61
731.269	781.55
731.599	783.31
731.93	779.95
732.261	781.81
732.591	781.09
732.922	780.6
733.252	777.55
733.582	776.63
733.912	779.28
734.243	783.7
734.573	782.01
734.903	786.03
735.233	782.01
735.563	781.8
735.893	780.65
736.223	781.26
736.552	779.96
736.882	777.14
737.212	780.14
737.541	782.24
737.871	777.18
738.2	774.88
738.53	773.14
738.859	775.73
739.188	778.03
739.518	774.59
739.847	778.46
740.176	775.66
740.505	774.69
740.834	775.35
741.163	773.19
741.492	772.29
741.821	770.9
742.15	768.64
742.478	767.09
742.807	768.61
743.136	771.92
743.464	765.7
743.793	764.93
744.121	762.63
744.449	763.13
744.778	762.07
745.106	764.52
745.434	761.85
745.762	759.44
746.09	762.14
746.418	759.52
746.746	758.97
747.074	759.43
747.402	762.16
747.73	764.53
748.057	766.64
748.385	761.36
748.712	759.96
749.04	759.54
749.367	760.67
749.695	759.37
750.022	758.77
750.349	761.76
750.677	761.8
751.004	765.51
751.331	757.74
751.658	758.94
751.985	757.73
752.312	754.09
752.639	751.13
752.966	755.73
753.292	750.06
753.619	752.98
753.946	754.04
754.272	751.75
754.599	752.98
754.925	755.43
755.251	752.48
755.578	751.21
755.904	751.61
756.23	750.42
756.556	752.86
756.882	756.78
757.208	754.63
757.534	753.2
757.86	752.98
758.186	756.33
758.512	754.02
758.838	753.52
759.163	752.35
759.489	752.38
759.814	747.76
760.14	748.67
760.465	749.35
760.791	743.29
761.116	745.54
761.441	744.96
761.766	743.9
762.092	741.29
762.417	740.12
762.742	741.37
763.066	736.96
763.391	740.46
763.716	742.78
764.041	740.39
764.366	740.61
764.69	737.52
765.015	737.71
765.339	738.77
765.664	742.18
765.988	739.34
766.312	735.13
766.637	729.71
766.961	730.45
767.285	731.43
767.609	729.15
767.933	725.42
768.257	728.42
768.581	729.59
768.905	733.2
769.229	736.51
769.552	733.29
769.876	732.35
770.2	728.57
770.523	732.64
770.847	728.87
771.17	727.43
771.493	727.86
771.817	726.2
772.14	725.42
772.463	724.12
772.786	722.03
773.109	721.93
773.432	720.82
773.755	720.74
774.078	719.66
774.401	717.03
774.724	714.41
775.046	716.12
775.369	716.17
775.692	710.61
776.014	712.55
776.336	712.84
776.659	712.5
776.981	708.63
777.303	708.29
777.626	704.4
777.948	709.25
778.27	707.08
778.592	710.67
778.914	706.51
779.236	708.19
779.557	711.81
779.879	711.16
780.201	711.5
780.523	711.62
780.844	708.7
781.166	708.34
781.487	714.79
781.809	714.56
782.13	714.85
782.451	714.91
782.772	715.51
783.094	714.32
783.415	715.36
783.736	717.14
784.057	716.53
784.378	720.51
784.698	717.12
785.019	717.9
785.34	715.64
785.661	720.08
785.981	721.91
786.302	722.5
786.622	722.46
786.943	727.75
787.263	723.59
787.583	722.2
787.903	726.1
788.224	726.16
788.544	727.76
788.864	723.5
789.184	728.86
789.504	729.85
789.824	733.3
790.143	733.56
790.463	729.79
790.783	728.26
791.102	730.34
791.422	732.41
791.741	732.21
792.061	729.2
792.38	730.73
792.699	727.11
793.019	730.54
793.338	731.21
793.657	729.97
793.976	733.6
794.295	730.91
794.614	734.11
794.933	732.83
795.252	734.7
795.57	734.57
795.889	735.39
796.208	732.92
796.526	727.57
796.845	728.98
797.163	727.86
797.482	726.36
797.8	727.85
798.118	727.64
798.436	727.66
798.754	725.51
799.073	725.74
799.391	727.21
799.708	729.11
800.026	728.01
800.344	726.8
800.662	725.42
800.98	722.76
801.297	722.76
801.615	729.06
801.932	726.51
802.25	725.35
802.567	723.65
802.884	725.56
803.202	725.12
803.519	720.54
803.836	722.11
804.153	720.27
804.47	718.06
804.787	714.2
805.104	711.47
805.421	714.89
805.737	717.33
806.054	715.36
806.371	716.41
806.687	717.15
807.004	715.54
807.32	713.36
807.637	713.44
807.953	712.95
808.269	713.1
808.585	715.6
808.902	712.44
809.218	712.2
809.534	710.83
809.85	708.24
810.165	708.64
810.481	710.76
810.797	706.53
811.113	706.66
811.428	706.75
811.744	707.05
812.059	707.8
812.375	703.56
812.69	703.99
813.006	699.76
813.321	698.35
813.636	702.78
813.951	701.05
814.266	704.59
814.581	700.73
814.896	700.28
815.211	699.49
815.526	696.54
815.841	696.97
816.155	697.45
816.47	695
816.784	696.06
817.099	695.59
817.413	692.01
817.728	693.58
818.042	694.05
818.356	694.48
818.67	693
818.985	688.86
819.299	687.23
819.613	687.35
819.926	685.38
820.24	690.01
820.554	690.2
820.868	689.28
821.182	682.59
821.495	683.75
821.809	684.29
822.122	683.59
822.436	683.07
822.749	685.83
823.062	685.11
823.376	681.62
823.689	676.97
824.002	677.78
824.315	675.05
824.628	678.85
824.941	678.68
825.254	677.43
825.566	674.41
825.879	673.6
826.192	675.35
826.504	672.2
826.817	672.56
827.129	673.66
827.442	670.19
827.754	670.47
828.066	672.57
828.379	669.1
828.691	670.23
829.003	667.18
829.315	668.4
829.627	667.13
829.939	664.46
830.251	662.61
830.562	661.95
830.874	663.21
831.186	661.61
831.497	662.45
831.809	658.19
832.12	655.55
832.432	654.94
832.743	657.27
833.054	656.92
833.365	660.28
833.676	657.59
833.988	656.77
834.299	653.8
834.61	654.84
834.92	655.11
835.231	655.66
835.542	656.75
835.853	653.62
836.163	652.34
836.474	652.7
836.784	649.22
837.095	646.87
837.405	648.43
837.715	651.67
838.026	650
838.336	649.94
838.646	647.39
838.956	639.33
839.266	637.95
839.576	636.9
839.886	640.66
840.195	640.23
840.505	638.78
840.815	640.04
841.124	639.38
841.434	636.62
841.743	637.15
842.053	637.55
842.362	636.99
842.671	635.36
842.981	637.47
843.29	632.34
843.599	634.53
843.908	633.66
844.217	631.84
844.526	631.78
844.835	633.41
845.143	627.6
845.452	626.42
845.761	627.56
846.069	621.59
846.378	622.96
846.686	623.85
846.995	623.38
847.303	619.45
847.611	620.43
847.919	619.26
848.227	621.65
848.535	619.21
848.843	618.13
849.151	615.88
849.459	618.16
849.767	618.32
850.075	616.06
850.382	613.95
850.69	615.21
850.998	611.21
851.305	611.72
851.612	613.57
851.92	610.4
852.227	608.3
852.534	609.96
852.841	607.66
853.148	608.76
853.455	612.71
853.762	611.68
854.069	610.34
854.376	608.77
854.683	607.43
854.99	604.45
855.296	601.11
855.603	600.43
855.909	600.2
856.216	600.37
856.522	601.21
856.828	596.79
857.135	594.85
857.441	593.87
857.747	591.98
858.053	591.85
858.359	589.57
858.665	591.07
858.971	588.83
859.276	589.6
859.582	587.8
859.888	587.68
860.193	589.84
860.499	586.66
860.804	587.78
861.11	585.21
861.415	583.46
861.72	584.39
862.026	581.51
862.331	581.69
862.636	578.51
862.941	578.72
863.246	578.99
863.551	578.35
863.855	579.63
864.16	578.38
864.465	575.32
864.769	574.67
865.074	572.6
865.378	571.77
865.683	571.15
865.987	574.24
866.291	570
866.596	569.45
866.9	566.75
867.204	565.84
867.508	564.69
867.812	568.46
868.116	569.28
868.42	568.64
868.723	563.99
869.027	562.28
869.331	559.09
869.634	559.77
869.938	557.39
870.241	558.2
870.544	559.97
870.848	559.58
871.151	561.86
871.454	558.34
871.757	559.58
872.06	555.88
872.363	554.45
872.666	557.6
872.969	552.57
873.272	552.33
873.574	552.42
873.877	549.61
874.18	547.61
874.482	547.04
874.785	545.83
875.087	545.75
875.389	546.51
875.692	548.38
875.994	543.62
876.296	543.96
876.598	544.12
876.9	542.72
877.202	538.53
877.504	539.89
877.805	540.43
878.107	541.94
878.409	538.75
878.71	540.51
879.012	537.69
879.313	534.27
879.615	534.93
879.916	533.77
880.217	532.19
880.518	532.74
880.82	531.46
881.121	532.48
881.422	528.01
881.723	526.61
882.023	527.58
882.324	527.68
882.625	525.66
882.926	525.66
883.226	524.96
883.527	526.61
883.827	526.26
884.128	523.83
884.428	523.42
884.728	521.51
885.028	518.24
885.328	517.72
885.629	518.35
885.929	516.68
886.228	515.86
886.528	514.23
886.828	514.81
887.128	510.85
887.427	508.05
887.727	507.24
888.027	507.78
888.326	509.72
888.625	511.19
888.925	508.1
889.224	507.35
889.523	505.5
889.822	503.77
890.121	503.6
890.42	503.79
890.719	503.91
891.018	504.86
891.317	506.12
891.616	505.09
891.914	504.45
892.213	501.76
892.512	499.83
892.81	499.26
893.108	500.45
893.407	501.35
893.705	503.5
894.003	502.07
894.301	501.75
894.599	501.65
894.897	501.69
895.195	498.3
895.493	497.79
895.791	500.43
896.089	500.76
896.386	502.03
896.684	501.92
896.981	501.03
897.279	500.89
897.576	503.17
897.874	498.63
898.171	498.71
898.468	502.04
898.765	501.93
899.062	499.72
899.359	502.5
899.656	504.06
899.953	500.79
900.25	499.67
900.547	500
900.843	499.7
901.14	498.55
901.436	499.97
901.733	500.42
902.029	499.88
902.325	502.15
902.622	497.43
902.918	500.32
903.214	502.17
903.51	497.02
903.806	496.68
904.102	499.59
904.398	500.75
904.694	500.16
904.989	503.07
905.285	500.59
905.581	499.71
905.876	497.32
906.171	498.69
906.467	497.22
906.762	496.49
907.057	497.93
907.353	497.71
907.648	495.38
907.943	495.88
908.238	492.65
908.533	492.06
908.827	493.39
909.122	492.11
909.417	491.33
909.711	494.67
910.006	492.71
910.301	491.34
910.595	492.27
910.889	490.81
911.184	490.27
911.478	490.49
911.772	491.96
912.066	490.89
912.36	492.27
912.654	492.71
912.948	489.77
913.242	492.44
913.536	488.41
913.829	487.21
914.123	486.48
914.416	485.83
914.71	484.33
915.003	487.54
915.297	487.32
915.59	485.48
915.883	485.95
916.176	486.81
916.469	481.57
916.762	483.41
917.055	483.28
917.348	481.85
917.641	482.7
917.934	482.66
918.226	483.28
918.519	480.85
918.811	479.41
919.104	478.95
919.396	475.89
919.689	477.17
919.981	476.05
920.273	472.47
920.565	474.82
920.857	472.99
921.149	471.65
921.441	470.49
921.733	472.09
922.025	470.22
922.316	469.1
922.608	469.41
922.9	468.14
923.191	466.88
923.483	469.51
923.774	467.91
924.065	469.62
924.357	468.65
924.648	463.41
924.939	464.42
925.23	461.37
925.521	460.5
925.812	462.47
926.102	463.72
926.393	462.91
926.684	461.94
926.975	462.38
927.265	460.26
927.556	458.17
927.846	455.53
928.136	453.51
928.427	456.05
928.717	454.57
929.007	455.1
929.297	455.3
929.587	452.06
929.877	451.45
930.167	449.95
930.457	451.38
930.746	450.23
931.036	451.3
931.325	448.79
931.615	449.42
931.904	447.4
932.194	445.78
932.483	444.41
932.772	447.75
933.062	444.68
933.351	444.25
933.64	442.45
933.929	443.93
934.218	441.1
934.506	441.39
934.795	438.83
935.084	440.54
935.372	440.57
935.661	440.27
935.949	436.54
936.238	437.89
936.526	436.24
936.815	433.92
937.103	434.39
937.391	432.94
937.679	432.15
937.967	435.68
938.255	432.71
938.543	433.43
938.831	433.14
939.118	432.69
939.406	429.25
939.693	426.98
939.981	426.49
940.268	426.65
940.556	427.4
940.843	426.49
941.13	427.91
941.418	426.92
941.705	427.41
941.992	424.35
942.279	423.36
942.566	423.46
942.852	420.05
943.139	419.57
943.426	420.18
943.712	419.54
943.999	420.07
944.285	420.59
944.572	419.83
944.858	420.37
945.144	419.57
945.431	418.61
945.717	415.18
946.003	415.37
946.289	414.84
946.575	414.64
946.861	412.73
947.146	416.73
947.432	414.57
947.718	411.37
948.003	412.29
948.289	409.84
948.574	410.71
948.86	407.71
949.145	406.82
949.43	408.63
949.715	407.89
950	406.58
950.285	406.61
950.57	406.46
950.855	408.48
951.14	406.57
951.425	406.79
951.709	406.51
951.994	404.37
952.278	405.2
952.563	404.36
952.847	402.53
953.132	402.07
953.416	403.78
953.7	400.53
953.984	402.4
954.268	401.56
954.552	400.66
954.836	397.8
955.12	400.16
955.404	399.14
955.687	398.55
955.971	397.06
956.254	396.9
956.538	395.87
956.821	396.97
957.105	396.07
957.388	397.11
957.671	394.15
957.954	395.78
958.237	393.83
958.52	392.84
958.803	392.47
959.086	390.63
959.369	392.23
959.652	391.72
959.934	390.7
960.217	393.31
960.499	392.23
960.782	391.4
961.064	389.25
961.346	390.07
961.629	388.24
961.911	389.94
962.193	388.66
962.475	387.12
962.757	388.97
963.039	388.7
963.32	386.14
963.602	389.56
963.884	388.56
964.165	387.24
964.447	382.84
964.728	384.55
965.01	382.8
965.291	380.3
965.572	382.98
965.853	381.16
966.134	382.55
966.415	384.57
966.696	384.07
966.977	381.8
967.258	382.84
967.539	379.86
967.819	380.35
968.1	379.36
968.38	377.62
968.661	378.44
968.941	378.14
969.222	378.21
969.502	378.28
969.782	377.05
970.062	377.13
970.342	378.37
970.622	377.01
970.902	376.82
971.182	374.24
971.462	376.38
971.741	375.98
972.021	376.65
972.3	372.7
972.58	375.65
972.859	374.66
973.138	373.74
973.418	373.89
973.697	374.84
973.976	374.4
974.255	374.13
974.534	372.11
974.813	371.91
975.092	370.33
975.37	372.04
975.649	373.63
975.928	369.45
976.206	369.07
976.485	370.49
976.763	370.09
977.041	368.59
977.32	371.32
977.598	368.97
977.876	368.54
978.154	366.2
978.432	367.48
978.71	370.76
978.988	366.95
979.265	367.71
979.543	367.43
979.821	367.8
980.098	368.73
980.376	366.23
980.653	366.48
980.93	367.68
981.208	363.91
981.485	364.19
981.762	364.06
982.039	362.72
982.316	363.35
982.593	363.95
982.87	364.01
983.146	363.93
983.423	363.56
983.7	364.73
983.976	363.45
984.253	361.51
984.529	363.35
984.805	362.53
985.082	360.45
985.358	362.99
985.634	359.18
985.91	361.37
986.186	363.92
986.462	361.08
986.738	360.69
987.013	360.85
987.289	361.2
987.565	360.9
987.84	358.73
988.116	358.21
988.391	359.52
988.666	359.38
988.942	356.62
989.217	358.65
989.492	356.7
989.767	358.42
990.042	358.48
990.317	358.24
990.592	358.28
990.866	358.69
991.141	356.74
991.416	355.37
991.69	356.33
991.964	355.25
992.239	354.3
992.513	352.96
992.787	354.06
993.062	356.68
993.336	355.11
993.61	356.47
993.884	356.95
994.158	354.43
994.431	356.05
994.705	355.28
994.979	353.11
995.252	355.29
995.526	354.74
995.799	352.93
996.073	354.32
996.346	352.62
996.619	354.38
996.892	351.28
997.165	352.63
997.438	354.44
997.711	355.73
997.984	351.34
998.257	352.5
998.53	352.36
998.802	355.44
999.075	351.9
999.347	352.38
999.62	351.83
999.892	350.79
1000.165	352.97
1000.437	351.11
1000.709	352.27
1000.981	352.77
1001.253	351.48
1001.525	350.7
1001.797	351.12
1002.068	351.35
1002.34	350.83
1002.612	352.05
1002.883	349.17
1003.155	349.37
1003.426	351.54
1003.698	349.61
1003.969	349.07
1004.24	346.72
1004.511	350.63
1004.782	349.81
1005.053	351.21
1005.324	349.25
1005.595	349.11
1005.866	349.92
1006.136	348.87
1006.407	348.59
1006.678	349.18
1006.948	348.21
1007.218	348.66
1007.489	348.27
1007.759	349.85
1008.029	349.14
1008.299	349.39
1008.569	348.47
1008.839	346.98
1009.109	348.26
1009.379	348.56
1009.649	346.78
1009.918	350.45
1010.188	347.47
1010.458	348.3
1010.727	346.55
1010.996	350.31
1011.266	347.79
1011.535	348.09
1011.804	347.15
1012.073	346.41
1012.342	347.03
1012.611	347.32
1012.88	349.67
1013.149	347.22
1013.417	346.74
1013.686	347.06
1013.955	346.8
1014.223	345.69
1014.492	346.9
1014.76	345.29
1015.028	345.6
1015.296	349.04
1015.565	346.44
1015.833	346.28
1016.101	349.11
1016.368	346.26
1016.636	346.35
1016.904	345.5
1017.172	346.83
1017.439	348.31
1017.707	346.6
1017.974	346.48
1018.242	347.27
1018.509	345.24
1018.776	345.93
1019.044	348.12
1019.311	345.41
1019.578	345.36
1019.845	345.24
1020.112	347.76
1020.378	347.76
1020.645	347.76
