Data from 190619_Kr_38K_film_FLMS138901_15-20-56-359.txt Node
Date: Wed Jun 19 15:20:56 EDT 2019
User: pSAM
Spectrometer: FLMS13890
Trigger mode: 0
Integration Time (sec): 5.000000E-3
Scans to average: 1000
Electric dark correction enabled: true
Nonlinearity correction enabled: false
Boxcar width: 0
XAxis mode: Wavelengths
Number of Pixels in Spectrum: 2048
>>>>>Begin Spectral Data<<<<<
342.097	-57.05
342.483	-57.05
342.868	-57.05
343.254	-99.91
343.639	-101.75
344.025	-102.86
344.41	-100.53
344.796	-90.22
345.181	-79.66
345.567	-64.38
345.952	-49.54
346.337	-37.16
346.722	-18.98
347.107	-0.55
347.493	19.5
347.878	37.88
348.263	58.48
348.648	80.07
349.033	97.55
349.418	115.26
349.802	135.16
350.187	155.41
350.572	173.01
350.957	236.63
351.342	369.82
351.726	393.44
352.111	411.77
352.495	426.9
352.88	440.43
353.264	451.7
353.649	464.39
354.033	476.13
354.418	487
354.802	497.24
355.186	503.8
355.57	512.88
355.955	521.93
356.339	524.62
356.723	530.04
357.107	533.7
357.491	554.97
357.875	542.12
358.259	544.21
358.643	546.99
359.026	546.41
359.41	549.57
359.794	549.58
360.178	553.24
360.561	551.74
360.945	549.45
361.329	550.42
361.712	551.01
362.096	549.85
362.479	552.64
362.862	552.11
363.246	549.71
363.629	550.2
364.012	549.03
364.396	551.36
364.779	550.71
365.162	550.76
365.545	552.83
365.928	552.69
366.311	553.58
366.694	553.82
367.077	557.19
367.46	556.71
367.843	556.3
368.226	558.83
368.608	559.34
368.991	563.55
369.374	560.49
369.756	561.77
370.139	562.32
370.521	563.97
370.904	566.04
371.286	563.19
371.669	564.61
372.051	566
372.433	572.75
372.816	571.85
373.198	573.32
373.58	577.77
373.962	577.17
374.344	577.65
374.726	582.91
375.108	584.1
375.49	589.67
375.872	592.27
376.254	589.9
376.636	592.89
377.018	593.05
377.399	594.53
377.781	595.16
378.163	594.92
378.544	592.3
378.926	596.85
379.307	599.7
379.689	605.05
380.07	609.35
380.452	616.75
380.833	617.79
381.214	620.3
381.596	627.88
381.977	628.33
382.358	634.49
382.739	644.1
383.12	650.55
383.501	649.2
383.882	644.98
384.263	642.34
384.644	643.5
385.025	648.61
385.406	651.44
385.787	654.1
386.167	658.03
386.548	659.95
386.929	667.51
387.309	675.09
387.69	684.7
388.07	692.13
388.451	695.92
388.831	702.6
389.211	695.39
389.592	691.03
389.972	688.35
390.352	691.75
390.733	692.36
391.113	694.65
391.493	698.5
391.873	706.95
392.253	711.35
392.633	724.96
393.013	734.83
393.393	739.56
393.772	740.18
394.152	740.58
394.532	739.25
394.912	745.53
395.291	745.6
395.671	748.78
396.05	739.85
396.43	744.75
396.809	742.27
397.189	752.3
397.568	759.35
397.948	761.27
398.327	775.64
398.706	782.46
399.085	784.93
399.465	783.83
399.844	784.99
400.223	773.95
400.602	776.73
400.981	776.96
401.36	775.02
401.739	775.52
402.117	783.49
402.496	777.6
402.875	783.36
403.254	789.07
403.632	788.78
404.011	796.82
404.39	808.57
404.768	813.78
405.147	831.41
405.525	840.34
405.903	840.61
406.282	844.27
406.66	842.72
407.038	828.44
407.417	825.17
407.795	827.74
408.173	830.67
408.551	832.9
408.929	838.1
409.307	841.54
409.685	850.74
410.063	854.57
410.441	855.66
410.818	858.91
411.196	858.3
411.574	867.65
411.952	870.76
412.329	882.14
412.707	900.72
413.084	914.03
413.462	917.17
413.839	922.53
414.217	911.72
414.594	910.46
414.971	913.25
415.349	918.59
415.726	923.1
416.103	916.21
416.48	918.1
416.857	923.26
417.234	937.56
417.611	941.43
417.988	941.51
418.365	931.95
418.742	935.28
419.119	942.07
419.495	950.65
419.872	950.4
420.249	972.97
420.625	981.31
421.002	999.48
421.379	1006.98
421.755	1026.35
422.131	1043.67
422.508	1043.86
422.884	1047.09
423.26	1052.33
423.637	1067.65
424.013	1051.25
424.389	1038.8
424.765	1029.95
425.141	1035.35
425.517	1031.8
425.893	1029.49
426.269	1024.37
426.645	1025.54
427.021	1054.62
427.397	1077.51
427.772	1090.84
428.148	1094.46
428.524	1092.29
428.899	1076.17
429.275	1092.1
429.651	1105.28
430.026	1129.05
430.401	1146
430.777	1144.22
431.152	1142.39
431.527	1133.44
431.903	1131.55
432.278	1124.16
432.653	1124.16
433.028	1131.44
433.403	1158.28
433.778	1200.91
434.153	1203.47
434.528	1200.74
434.903	1191.73
435.278	1208.54
435.653	1226.12
436.027	1235.91
436.402	1244.99
436.777	1243.52
437.151	1241.44
437.526	1249.23
437.9	1246.06
438.275	1263.89
438.649	1260.84
439.023	1271.41
439.398	1271.45
439.772	1271.63
440.146	1278.57
440.52	1289.24
440.895	1313.79
441.269	1354.77
441.643	1383.63
442.017	1385.67
442.391	1380.21
442.765	1368.17
443.138	1357.92
443.512	1375.52
443.886	1387.24
444.26	1392.51
444.633	1402.02
445.007	1404.61
445.38	1406.07
445.754	1411.89
446.127	1424.37
446.501	1423.25
446.874	1425.54
447.248	1416.26
447.621	1422.75
447.994	1415.32
448.367	1425.21
448.741	1430.9
449.114	1425.15
449.487	1440.7
449.86	1448.75
450.233	1452.04
450.606	1450.73
450.978	1447.44
451.351	1455.25
451.724	1454.56
452.097	1452.26
452.469	1459.95
452.842	1459.36
453.215	1465.77
453.587	1470.68
453.96	1481.27
454.332	1479.48
454.704	1492.21
455.077	1505.25
455.449	1520.48
455.821	1517.65
456.194	1540.26
456.566	1542.46
456.938	1555.37
457.31	1569.4
457.682	1601.42
458.054	1610.04
458.426	1629.25
458.798	1647.49
459.17	1650.05
459.541	1650.12
459.913	1635.37
460.285	1634.91
460.656	1638.22
461.028	1632.18
461.399	1656.78
461.771	1653.82
462.142	1673.24
462.514	1693
462.885	1709.12
463.256	1758.65
463.628	1772.32
463.999	1801.33
464.37	1843.17
464.741	1858.24
465.112	1840.59
465.483	1854.68
465.854	1869.22
466.225	1854.22
466.596	1846.97
466.967	1871.88
467.338	1871.7
467.708	1903.1
468.079	1922.52
468.45	1937.18
468.82	1939.76
469.191	1936.73
469.561	1937.5
469.932	1953.99
470.302	1944.34
470.673	1981.79
471.043	2001.69
471.413	2021.86
471.783	2053.53
472.154	2085.38
472.524	2110.71
472.894	2174.74
473.264	2209.52
473.634	2220
474.004	2224.99
474.374	2256.2
474.743	2265.69
475.113	2314.66
475.483	2333.94
475.853	2375.02
476.222	2399.45
476.592	2457.92
476.961	2441.71
477.331	2453.87
477.7	2490.14
478.07	2570.43
478.439	2583.98
478.808	2615.15
479.178	2633.51
479.547	2675.43
479.916	2696.03
480.285	2751.28
480.654	2774.13
481.023	2816.19
481.392	2841.87
481.761	2885.87
482.13	2926.03
482.499	2966.57
482.867	2983.16
483.236	3057
483.605	3113.6
483.973	3153.5
484.342	3236.02
484.71	3301.18
485.079	3355.31
485.447	3789.63
485.816	4303.33
486.184	4578.2
486.552	4352.24
486.921	3883.58
487.289	3635.01
487.657	3611.79
488.025	3605.12
488.393	3606.87
488.761	3626.27
489.129	3692.97
489.497	3719.83
489.865	3807.46
490.233	3848.49
490.6	3906.25
490.968	3895.64
491.336	3906.11
491.703	3935.33
492.071	3969.14
492.438	4013.09
492.806	4059.21
493.173	4125.91
493.541	4150.57
493.908	4169.43
494.275	4182.91
494.642	4186.65
495.01	4206.89
495.377	4204.1
495.744	4227.44
496.111	4314.88
496.478	4396.53
496.845	4410.69
497.211	4411.61
497.578	4422.46
497.945	4448.73
498.312	4516.56
498.678	4595.36
499.045	4662.64
499.412	4654.87
499.778	4657.82
500.145	4664.5
500.511	4670.42
500.878	4736.35
501.244	4812.95
501.61	4857.36
501.976	4856.65
502.343	4863.71
502.709	4913.56
503.075	4915.67
503.441	4934.68
503.807	4964.35
504.173	4961.86
504.539	4967.71
504.905	4987.92
505.27	5032.79
505.636	5061.62
506.002	5136.92
506.367	5127.06
506.733	5132.6
507.099	5117.98
507.464	5156.83
507.829	5185.17
508.195	5251.69
508.56	5262.59
508.926	5264.01
509.291	5261.03
509.656	5288.03
510.021	5329.02
510.386	5379.77
510.751	5402.32
511.116	5449.22
511.481	5470.7
511.846	5503.71
512.211	5505.43
512.576	5543.4
512.941	5525.47
513.305	5525.04
513.67	5570.23
514.035	5586.28
514.399	5637.73
514.764	5650.11
515.128	5678.98
515.493	5707.79
515.857	5733.87
516.221	5723.42
516.585	5773.31
516.95	5799.66
517.314	5817.68
517.678	5832.86
518.042	5846.92
518.406	5924.48
518.77	5914.83
519.134	5934.12
519.498	6006.5
519.862	6024.72
520.225	5997.94
520.589	6040.97
520.953	6084.56
521.316	6121.31
521.68	6133.33
522.043	6152.68
522.407	6126.58
522.77	6159.2
523.134	6228.36
523.497	6216.18
523.86	6271.66
524.223	6302.95
524.587	6354.46
524.95	6391.49
525.313	6414.04
525.676	6457.51
526.039	6478.64
526.402	6486.16
526.765	6542.44
527.127	6582.08
527.49	6621.95
527.853	6652.64
528.215	6652.68
528.578	6734.63
528.941	6755.86
529.303	6814.39
529.666	6822.55
530.028	6857.36
530.39	6870.96
530.753	6913.73
531.115	6983.09
531.477	7027.19
531.839	7060.86
532.201	7072.42
532.564	7126.08
532.926	7142.14
533.287	7270.68
533.649	7334.16
534.011	7382.01
534.373	7412.64
534.735	7441.75
535.097	7482.59
535.458	7529.93
535.82	7560.41
536.181	7587.83
536.543	7592.06
536.904	7557.98
537.266	7668.88
537.627	7724.92
537.988	7776.23
538.35	7832.62
538.711	7889.4
539.072	7953.9
539.433	7956.38
539.794	8028.05
540.155	8025.69
540.516	8094.02
540.877	8110.07
541.238	8183.96
541.599	8245.74
541.959	8284.3
542.32	8404.97
542.681	8493.38
543.041	8511.79
543.402	8551.2
543.762	8622.37
544.123	8612.37
544.483	8676.5
544.844	8706.67
545.204	8718.73
545.564	8735.59
545.924	8768.88
546.284	8804.19
546.644	8839.38
547.004	8819.78
547.364	8857.77
547.724	8911.51
548.084	8914.84
548.444	8970.01
548.804	8959.91
549.164	8989.94
549.523	9018.32
549.883	9016.91
550.242	9058.33
550.602	9127.11
550.961	9147.19
551.321	9124.53
551.68	9177.71
552.04	9197.74
552.399	9325.63
552.758	9327.18
553.117	9313.06
553.476	9421.26
553.835	9436.14
554.194	9500.04
554.553	9472.17
554.912	9452.36
555.271	9520.44
555.63	9571.24
555.989	9623.64
556.347	9652.37
556.706	9693.35
557.065	9682.29
557.423	9682.77
557.782	9717.15
558.14	9728.96
558.499	9762.89
558.857	9774.48
559.215	9768.11
559.573	9874.42
559.932	9949.16
560.29	10000.15
560.648	10028.86
561.006	10091.78
561.364	10103.5
561.722	10122.26
562.08	10166.09
562.438	10134.05
562.795	10267.39
563.153	10328.72
563.511	10349.9
563.868	10373.84
564.226	10389.97
564.583	10396.13
564.941	10385.42
565.298	10526.7
565.656	10504.84
566.013	10514.51
566.37	10559.67
566.727	10705.86
567.085	10825.47
567.442	10937.72
567.799	11001.8
568.156	11044.08
568.513	11085.68
568.87	11207.72
569.226	11403.49
569.583	11656.36
569.94	11755.37
570.297	11862.65
570.653	11778.87
571.01	11909.42
571.366	12119.98
571.723	12279.46
572.079	12236.85
572.436	12195.84
572.792	12080.18
573.148	12338.68
573.505	12628.54
573.861	12990.02
574.217	12948.22
574.573	12960.62
574.929	12970.34
575.285	12928.02
575.641	12965.08
575.997	13032.4
576.352	13235.32
576.708	13266.25
577.064	13427.89
577.42	13740.35
577.775	13996.15
578.131	14068.66
578.486	13938.81
578.842	13603.39
579.197	13606.08
579.552	13780.55
579.908	14058.87
580.263	14417.77
580.618	14135.49
580.973	14092.44
581.328	14778.37
581.683	15430.9
582.038	15800.91
582.393	15029.07
582.748	14355.02
583.103	13894.98
583.458	13635.51
583.812	13632.02
584.167	14013.73
584.522	14382.62
584.876	14693.09
585.231	14730.26
585.585	14776.25
585.939	14478.71
586.294	14309.61
586.648	14166.42
587.002	14148.54
587.356	14437.13
587.711	14887.27
588.065	14778.83
588.419	14922.14
588.773	14737.14
589.127	14457.89
589.48	14278.75
589.834	14062.55
590.188	14103.71
590.542	14141.06
590.895	14007.04
591.249	14174.05
591.603	14132.86
591.956	14108.5
592.309	14140.79
592.663	14429.05
593.016	14813.23
593.369	15073.36
593.723	14903.41
594.076	14865.81
594.429	14771.46
594.782	15008.71
595.135	15271.89
595.488	15330.81
595.841	15106.75
596.194	14816.41
596.547	14686.55
596.899	14598.12
597.252	14696.6
597.605	14826.17
597.957	14815.48
598.31	14790.43
598.662	14908.18
599.015	15031.3
599.367	15145.9
599.719	15099.81
600.072	15087.26
600.424	15156.59
600.776	15319.98
601.128	15382.59
601.48	15315.31
601.832	15381.85
602.184	15317.39
602.536	15416.21
602.888	15524.83
603.24	15858.02
603.592	16003.2
603.943	15838.85
604.295	15611.82
604.646	15352.82
604.998	15500.71
605.349	15686.19
605.701	15886.54
606.052	15864.9
606.404	15721.11
606.755	15776.62
607.106	15843.29
607.457	15815.29
607.808	15855.54
608.159	15819.29
608.51	15812.46
608.861	15843.91
609.212	15702.75
609.563	15879.97
609.914	16087.7
610.265	16109.68
610.615	16290.64
610.966	16298.25
611.316	16432.09
611.667	16589.55
612.017	16640.89
612.368	16293.24
612.718	16465.02
613.068	16385.7
613.419	16451.64
613.769	16481.8
614.119	16577.11
614.469	16655.21
614.819	16443.48
615.169	16402.91
615.519	16594.89
615.869	16606.4
616.219	16548.46
616.568	16354.22
616.918	16255.93
617.268	16395.79
617.617	16422.4
617.967	16524.54
618.316	16418.68
618.666	16382.3
619.015	16487.45
619.364	16601.25
619.714	16899.21
620.063	16854.14
620.412	16891.26
620.761	16718.07
621.11	16675.75
621.459	16545.74
621.808	16563.48
622.157	16698.83
622.506	16808.72
622.855	16935.04
623.203	17035.15
623.552	17143.41
623.901	17174.63
624.249	17067.94
624.598	17217.09
624.946	17137.46
625.295	17004.21
625.643	16889.59
625.991	17028.62
626.34	16958.86
626.688	16985.65
627.036	17199.76
627.384	17209.94
627.732	17303.06
628.08	17374.21
628.428	17334.75
628.776	17391.09
629.124	17391.86
629.471	17442.06
629.819	17515.04
630.167	17466.18
630.514	17520.14
630.862	17406.94
631.209	17379.6
631.557	17353.62
631.904	17353.27
632.251	17359.73
632.599	17273.91
632.946	17383.74
633.293	17569.69
633.64	17699.74
633.987	17822.85
634.334	17740.29
634.681	17723.54
635.028	17786.67
635.375	17764.96
635.722	17909.5
636.068	17993.5
636.415	17995.25
636.762	18020.05
637.108	18047.3
637.455	17908.37
637.801	17974.84
638.147	18130.06
638.494	18096.7
638.84	18238.52
639.186	18071.99
639.532	18016.44
639.878	18094.2
640.225	18197.43
640.571	18350.8
640.916	18413.09
641.262	18535.88
641.608	18484.14
641.954	18560.36
642.3	18485.25
642.645	18400.72
642.991	18391.97
643.337	18522.19
643.682	18587.46
644.028	18523.68
644.373	18542.51
644.718	18578.65
645.064	18637.38
645.409	18719.32
645.754	18764.03
646.099	18773.98
646.444	18746.79
646.789	18856.6
647.134	18820.01
647.479	18863.08
647.824	18915.67
648.169	18951.93
648.513	19101.96
648.858	19003.18
649.203	19087.33
649.547	19103.57
649.892	19154
650.236	19157.41
650.581	19082.93
650.925	19091.72
651.269	19106.46
651.613	19111.03
651.958	19051.16
652.302	19228.53
652.646	19218.8
652.99	19147.51
653.334	19313.59
653.678	19210.99
654.022	19282.57
654.365	19288.82
654.709	19372.53
655.053	19465.21
655.396	19754.29
655.74	25909.44
656.083	41430.95
656.427	48103.57
656.77	46652.74
657.114	30084.81
657.457	22543.9
657.8	20685.43
658.143	20091.92
658.486	19810.71
658.83	19779.3
659.173	19641.99
659.516	19595.11
659.858	19651.3
660.201	19651.91
660.544	19678.48
660.887	19710.51
661.229	19787.93
661.572	19625.35
661.915	19655.07
662.257	19647.31
662.6	19805.85
662.942	19862.49
663.284	19847.93
663.627	19845.98
663.969	19787.07
664.311	19804.85
664.653	19769.96
664.995	19832.35
665.337	19881.6
665.679	19837.08
666.021	19873.43
666.363	19749.55
666.705	19892.38
667.046	19885.52
667.388	19697.98
667.73	19665.02
668.071	19737.18
668.413	19709.68
668.754	19821.42
669.096	19820.52
669.437	19983.73
669.778	19863.2
670.119	19804
670.461	19717.37
670.802	19757.47
671.143	19672.36
671.484	19769.4
671.825	19859.77
672.165	20010
672.506	20160.19
672.847	20187.27
673.188	20184.92
673.528	20014.37
673.869	19864.06
674.21	19944.72
674.55	20005.03
674.89	19939.63
675.231	19885.92
675.571	19835.79
675.911	19759.21
676.252	19907.92
676.592	19988.6
676.932	19880.12
677.272	19844.06
677.612	19912.88
677.952	20003.56
678.292	20023.7
678.631	20044.84
678.971	19914.03
679.311	20036.99
679.651	20141.8
679.99	20243.61
680.33	20221.99
680.669	20161.55
681.009	20168.1
681.348	20236.97
681.687	20240.2
682.026	20266.43
682.366	20172.32
682.705	20179.77
683.044	20161.01
683.383	20145.03
683.722	20191.77
684.061	20114.98
684.4	20196.71
684.738	20166.04
685.077	20208.13
685.416	20257.39
685.754	20268.6
686.093	20318.86
686.431	20466.15
686.77	20316.3
687.108	20294.31
687.447	20234.57
687.785	20244.55
688.123	20149.34
688.461	20232.24
688.799	20011.95
689.137	19906.23
689.475	20030.09
689.813	19941.79
690.151	20090.45
690.489	20064.27
690.827	20119.42
691.164	20277.68
691.502	20358.81
691.84	20307.79
692.177	20416
692.515	20418.29
692.852	20210.51
693.189	20304.49
693.527	20350.42
693.864	20273.65
694.201	20282.97
694.538	20231.91
694.875	20226.13
695.212	20142.29
695.549	20201.15
695.886	20251.17
696.223	20279.98
696.56	20343.89
696.897	20149.83
697.233	20237.38
697.57	20223.85
697.906	20387.16
698.243	20382.6
698.579	20246.5
698.916	20331.97
699.252	20255.25
699.588	20257.32
699.924	20249.51
700.261	20175.27
700.597	20319.46
700.933	20358.3
701.269	20176.16
701.605	20283.25
701.941	20213.63
702.276	20174.14
702.612	20136.6
702.948	20177.21
703.283	20128.49
703.619	20166.22
703.954	20236.31
704.29	20162.59
704.625	20170.55
704.961	20188.86
705.296	20341.48
705.631	20187.5
705.966	20167.78
706.301	20181.63
706.637	20227.23
706.972	20434.09
707.306	20483.81
707.641	20560.71
707.976	20434.6
708.311	20411.26
708.646	20403.65
708.98	20196.69
709.315	20121.44
709.649	20068.24
709.984	20017.31
710.318	19820.11
710.653	19953.65
710.987	20038.86
711.321	20160.43
711.655	20036.78
711.989	19960.58
712.324	19982.76
712.658	19923.38
712.992	20049.94
713.325	20035.55
713.659	20195.32
713.993	20180.59
714.327	20239.46
714.66	20284.92
714.994	20090.66
715.328	20134.41
715.661	20224.22
715.994	20204.05
716.328	19849.9
716.661	19840.17
716.994	19894.7
717.328	19860.01
717.661	19939.32
717.994	19885.04
718.327	19823.99
718.66	19810.91
718.993	19890.25
719.325	19851.97
719.658	19719.01
719.991	19738.93
720.324	19832.96
720.656	19807.51
720.989	19802.14
721.321	19811.53
721.654	19764.58
721.986	19617.71
722.318	19582.86
722.651	19715.62
722.983	19662.01
723.315	19742.55
723.647	19710.92
723.979	19705.38
724.311	19661.84
724.643	19517.28
724.975	19503.93
725.307	19531.05
725.638	19668.55
725.97	19479.4
726.302	19584.38
726.633	19506.06
726.965	19561.42
727.296	19469.63
727.628	19438.24
727.959	19510.34
728.29	19734.88
728.621	19554.17
728.952	19541.83
729.284	19270.56
729.615	19272.98
729.945	19118.14
730.276	19094.89
730.607	19120.67
730.938	19103.37
731.269	19153.51
731.599	19192.8
731.93	19211.02
732.261	19022.94
732.591	19034.71
732.922	19031.39
733.252	18963.45
733.582	19001.68
733.912	18923.77
734.243	18876.58
734.573	18948.89
734.903	19125.32
735.233	18932.6
735.563	18878.59
735.893	18864.66
736.223	18768.85
736.552	18772.01
736.882	18795.98
737.212	18745.59
737.541	18787.07
737.871	18785.95
738.2	18683.92
738.53	18492.69
738.859	18336.55
739.188	18202.51
739.518	18228.2
739.847	18324.15
740.176	18173.35
740.505	18096.86
740.834	18060.62
741.163	17997.68
741.492	17896.79
741.821	17851.67
742.15	17734.85
742.478	17731.56
742.807	17613.5
743.136	17697.53
743.464	17665.51
743.793	17658.52
744.121	17672.12
744.449	17662.27
744.778	17647.9
745.106	17718.31
745.434	17644.77
745.762	17355.16
746.09	17248.52
746.418	17207.5
746.746	17164.32
747.074	17062.22
747.402	17153.04
747.73	17086.01
748.057	17129.73
748.385	16975.17
748.712	16820.09
749.04	16728.02
749.367	16693.24
749.695	16599.98
750.022	16736.77
750.349	16774.68
750.677	16822.2
751.004	16720.5
751.331	16556.67
751.658	16503.79
751.985	16438.42
752.312	16347.77
752.639	16277.57
752.966	16207.81
753.292	16141.06
753.619	16331.84
753.946	16415.05
754.272	16383.29
754.599	16325.66
754.925	16147.39
755.251	16053.52
755.578	16120.98
755.904	16114.74
756.23	15987.57
756.556	16046.08
756.882	16238.15
757.208	16145.7
757.534	16138.88
757.86	16103.98
758.186	16059.26
758.512	15975.63
758.838	15992.52
759.163	15944.53
759.489	15852.95
759.814	15694.23
760.14	15706.15
760.465	15738.2
760.791	15561.24
761.116	15443.02
761.441	15399.95
761.766	15434.54
762.092	15331.15
762.417	15257.48
762.742	15234.35
763.066	15183.81
763.391	15106.08
763.716	15144.76
764.041	15202.02
764.366	15194.25
764.69	15115.84
765.015	15017.19
765.339	14966.16
765.664	14955.95
765.988	14897.37
766.312	14745.79
766.637	14538.92
766.961	14498.91
767.285	14470.71
767.609	14370.94
767.933	14295.01
768.257	14370.41
768.581	14337.87
768.905	14494.94
769.229	14562.32
769.552	14493.05
769.876	14571.62
770.2	14368.49
770.523	14308.24
770.847	14206.41
771.17	14222.31
771.493	14241.01
771.817	14123.4
772.14	13809.05
772.463	13647.38
772.786	13648.88
773.109	13682.95
773.432	13813.78
773.755	13758.88
774.078	13682.82
774.401	13628.99
774.724	13565.03
775.046	13636.32
775.369	13607.63
775.692	13447.84
776.014	13259.28
776.336	13133.83
776.659	13176.63
776.981	13198.05
777.303	13135.44
777.626	13036.02
777.948	12966.58
778.27	13004.26
778.592	13045.43
778.914	13043.7
779.236	12882.48
779.557	12803.7
779.879	12860.83
780.201	12827.27
780.523	12907.39
780.844	12936.21
781.166	13063.92
781.487	13033.34
781.809	12936.56
782.13	12989.02
782.451	13025.64
782.772	13184.45
783.094	13181.36
783.415	13238.82
783.736	13154.11
784.057	13190.85
784.378	13207.11
784.698	13156.73
785.019	13139.73
785.34	12907.26
785.661	12977.73
785.981	13121.76
786.302	13203.78
786.622	13253.83
786.943	13297.82
787.263	13128.4
787.583	13139.69
787.903	13188.51
788.224	13265.51
788.544	13346.25
788.864	13177.17
789.184	13212.34
789.504	13195.07
789.824	13257.48
790.143	13311.72
790.463	13337.16
790.783	13292.69
791.102	13207.05
791.422	13200.28
791.741	13179.88
792.061	13172.59
792.38	13288.05
792.699	13220.72
793.019	13183.02
793.338	13084.4
793.657	13024.66
793.976	13194.46
794.295	13175.51
794.614	13278.65
794.933	13190.52
795.252	13168.5
795.57	13130.92
795.889	13137.98
796.208	13125.82
796.526	12958.47
796.845	12900.85
797.163	12706.96
797.482	12721.27
797.8	12849.84
798.118	12847.27
798.436	12913.17
798.754	12856.8
799.073	12737.13
799.391	12740.63
799.708	12709.11
800.026	12719.64
800.344	12672.58
800.662	12586.45
800.98	12448.22
801.297	12461.8
801.615	12560.78
801.932	12598.07
802.25	12529.61
802.567	12458.15
802.884	12401.99
803.202	12225.48
803.519	12096.85
803.836	12103.29
804.153	12100.03
804.47	12144.05
804.787	12059.82
805.104	11971.51
805.421	11976.14
805.737	11977.68
806.054	12003.59
806.371	12062.93
806.687	12138.29
807.004	12099.29
807.32	11996.44
807.637	11961.37
807.953	11918.57
808.269	11940.09
808.585	11990.52
808.902	11784.25
809.218	11619.23
809.534	11516.49
809.85	11480.77
810.165	11483.26
810.481	11545.26
810.797	11475.76
811.113	11431.13
811.428	11397.48
811.744	11402.17
812.059	11422.7
812.375	11412.48
812.69	11332.01
813.006	11163.91
813.321	11115.55
813.636	11090.55
813.951	11222.56
814.266	11335.86
814.581	11340.81
814.896	11269.55
815.211	11053.79
815.526	10905.77
815.841	10812.65
816.155	10871.6
816.47	10956.08
816.784	10996.64
817.099	10862.15
817.413	10706.5
817.728	10636.55
818.042	10606.54
818.356	10663.83
818.67	10719.18
818.985	10717.48
819.299	10534.94
819.613	10442.21
819.926	10280.17
820.24	10346.7
820.554	10452.28
820.868	10510.11
821.182	10375.27
821.495	10344.76
821.809	10217.49
822.122	10160.27
822.436	10191.42
822.749	10209.47
823.062	10215.44
823.376	10145.69
823.689	10025.5
824.002	9957.82
824.315	9902.27
824.628	9957.53
824.941	10015.97
825.254	9946.76
825.566	9809
825.879	9780.81
826.192	9694.4
826.504	9653.53
826.817	9717.24
827.129	9828.59
827.442	9827.04
827.754	9769.63
828.066	9680.16
828.379	9500.7
828.691	9449.76
829.003	9363.52
829.315	9387.01
829.627	9394.75
829.939	9302.8
830.251	9261.31
830.562	9163.24
830.874	9172.02
831.186	9166.83
831.497	9243.86
831.809	9218.93
832.12	9125.12
832.432	8963.34
832.743	8896.34
833.054	8860.83
833.365	8872.25
833.676	8963.64
833.988	8998.35
834.299	8944.34
834.61	8867.16
834.92	8838.51
835.231	8902.49
835.542	8943.42
835.853	8932.78
836.163	8911.32
836.474	8861.64
836.784	8777.11
837.095	8618.53
837.405	8494.07
837.715	8485.72
838.026	8510.58
838.336	8489.4
838.646	8431.83
838.956	8279.68
839.266	8202.98
839.576	8171.43
839.886	8256.04
840.195	8354.55
840.505	8380.36
840.815	8337.99
841.124	8256.78
841.434	8166.22
841.743	8072.96
842.053	8073.31
842.362	8057.76
842.671	8093.06
842.981	8146.57
843.29	8071.1
843.599	8019.99
843.908	7939.34
844.217	7918.23
844.526	7962.89
844.835	7995.68
845.143	7977.49
845.452	7919.51
845.761	7877.87
846.069	7736.12
846.378	7712.88
846.686	7655.89
846.995	7679.37
847.303	7681.8
847.611	7685.11
847.919	7557.95
848.227	7498.37
848.535	7432.25
848.843	7423.15
849.151	7430.91
849.459	7516.44
849.767	7473.59
850.075	7429.65
850.382	7329
850.69	7263.98
850.998	7238.6
851.305	7241.28
851.612	7281.52
851.92	7283.51
852.227	7260.58
852.534	7196.88
852.841	7144.44
853.148	7111.92
853.455	7169.1
853.762	7185.89
854.069	7239.74
854.376	7218.23
854.683	7165.14
854.99	7052.97
855.296	6968.28
855.603	6903.05
855.909	6866.25
856.216	6851.43
856.522	6844.48
856.828	6847.16
857.135	6795.77
857.441	6738.63
857.747	6651.88
858.053	6613.67
858.359	6562.19
858.665	6620.74
858.971	6628.77
859.276	6624.29
859.582	6586.78
859.888	6570.24
860.193	6474.78
860.499	6422.06
860.804	6459.68
861.11	6429.58
861.415	6452.84
861.72	6429.75
862.026	6336.44
862.331	6281.94
862.636	6207.73
862.941	6209.37
863.246	6239.69
863.551	6285.67
863.855	6318.45
864.16	6291.13
864.465	6225.13
864.769	6131.64
865.074	6057.21
865.378	6027.53
865.683	6012.68
865.987	6051.03
866.291	5982.78
866.596	5955.24
866.9	5871.77
867.204	5821.17
867.508	5777.82
867.812	5764.05
868.116	5777.35
868.42	5777.05
868.723	5783.79
869.027	5758.95
869.331	5698.99
869.634	5633.48
869.938	5561.88
870.241	5573.69
870.544	5594.86
870.848	5604
871.151	5584.13
871.454	5554.99
871.757	5505.43
872.06	5404.04
872.363	5313.28
872.666	5296.93
872.969	5291.68
873.272	5339.03
873.574	5368.88
873.877	5356.12
874.18	5283.41
874.482	5217.56
874.785	5204.56
875.087	5161.02
875.389	5200.66
875.692	5235.27
875.994	5254.95
876.296	5245.38
876.598	5201.85
876.9	5117.74
877.202	5020.2
877.504	4956.72
877.805	4966.79
878.107	5013.6
878.409	5033.16
878.71	5087.19
879.012	5059.68
879.313	4971.35
879.615	4928.15
879.916	4871.15
880.217	4865.43
880.518	4901.64
880.82	4939.63
881.121	4916.58
881.422	4859.97
881.723	4785.43
882.023	4680.1
882.324	4630.47
882.625	4579.91
882.926	4569.76
883.226	4627.65
883.527	4594.96
883.827	4605.96
884.128	4585.61
884.428	4543.65
884.728	4456.55
885.028	4426.94
885.328	4405.88
885.629	4395.93
885.929	4442.45
886.228	4448.3
886.528	4369.01
886.828	4280.95
887.128	4215.6
887.427	4167.59
887.727	4149.42
888.027	4120.09
888.326	4137.7
888.625	4154.35
888.925	4127.32
889.224	4133.75
889.523	4083.46
889.822	4038.08
890.121	4007
890.42	3990.04
890.719	4012.01
891.018	4007.01
891.317	4043.35
891.616	4048.48
891.914	4015.19
892.213	3972.27
892.512	3929.16
892.81	3904.65
893.108	3891.98
893.407	3912.05
893.705	3942.41
894.003	3937.67
894.301	3916.44
894.599	3888.85
894.897	3876.77
895.195	3854.27
895.493	3821.24
895.791	3846.13
896.089	3865.78
896.386	3863.52
896.684	3895.89
896.981	3891.34
897.279	3884
897.576	3902.03
897.874	3840.45
898.171	3839.8
898.468	3845.88
898.765	3860.71
899.062	3911.87
899.359	3912.48
899.656	3886.61
899.953	3826.76
900.25	3777.35
900.547	3720.42
900.843	3681.48
901.14	3686.39
901.436	3703.61
901.733	3727.73
902.029	3740.52
902.325	3743.83
902.622	3694.17
902.918	3670.07
903.214	3643.33
903.51	3621.83
903.806	3650.89
904.102	3679.92
904.398	3716.57
904.694	3717.75
904.989	3755.38
905.285	3700.68
905.581	3639.01
905.876	3618.05
906.171	3590.34
906.467	3596.49
906.762	3618.08
907.057	3629.1
907.353	3649.06
907.648	3615.62
907.943	3573.94
908.238	3511.94
908.533	3452.95
908.827	3434.58
909.122	3428.52
909.417	3451.47
909.711	3481.37
910.006	3483.85
910.301	3463.71
910.595	3463.26
910.889	3463.9
911.184	3407.37
911.478	3389.2
911.772	3381.28
912.066	3357.75
912.36	3348.27
912.654	3336.37
912.948	3327.18
913.242	3327.69
913.536	3272.55
913.829	3221.57
914.123	3183.72
914.416	3129.2
914.71	3108.76
915.003	3126.44
915.297	3125.61
915.59	3113.03
915.883	3103.44
916.176	3090.51
916.469	3060.42
916.762	3043.41
917.055	3018.41
917.348	2995.94
917.641	3006.79
917.934	3000
918.226	2994.26
918.519	2973.26
918.811	2956.99
919.104	2933.34
919.396	2893.08
919.689	2852
919.981	2818.33
920.273	2791.78
920.565	2788.22
920.857	2767.96
921.149	2759.8
921.441	2750.19
921.733	2731.81
922.025	2691.89
922.316	2667.25
922.608	2639.33
922.9	2614.54
923.191	2612.14
923.483	2631.88
923.774	2626.91
924.065	2627.13
924.357	2605.13
924.648	2564.43
924.939	2548.65
925.23	2520.9
925.521	2500.04
925.812	2487.45
926.102	2490.78
926.393	2499
926.684	2512.77
926.975	2503.57
927.265	2475.91
927.556	2437.5
927.846	2380.21
928.136	2328.6
928.427	2289.32
928.717	2270.81
929.007	2267.42
929.297	2265.08
929.587	2265.22
929.877	2266.46
930.167	2259.5
930.457	2236.29
930.746	2201.58
931.036	2171.69
931.325	2146.62
931.615	2121.02
931.904	2127.17
932.194	2113.43
932.483	2112.59
932.772	2111.26
933.062	2097.71
933.351	2071.75
933.64	2029.19
933.929	2004.43
934.218	1973.42
934.506	1952.63
934.795	1944.59
935.084	1940.75
935.372	1940.18
935.661	1934.69
935.949	1920.92
936.238	1911.91
936.526	1880.16
936.815	1854
937.103	1839.73
937.391	1827.75
937.679	1817.31
937.967	1808.43
938.255	1799.26
938.543	1794.48
938.831	1775.33
939.118	1770.73
939.406	1745.43
939.693	1714.73
939.981	1687.02
940.268	1668.38
940.556	1649.69
940.843	1644.29
941.13	1639.9
941.418	1641.09
941.705	1633.08
941.992	1629.09
942.279	1612.87
942.566	1590.55
942.852	1564.27
943.139	1542.55
943.426	1519.09
943.712	1501.17
943.999	1480.83
944.285	1469.5
944.572	1454.55
944.858	1440.44
945.144	1434.6
945.431	1417.21
945.717	1405.45
946.003	1403.04
946.289	1394.15
946.575	1392.45
946.861	1395.85
947.146	1401.84
947.432	1402.94
947.718	1391.62
948.003	1375.84
948.289	1355.92
948.574	1331.62
948.86	1305.23
949.145	1285.84
949.43	1267
949.715	1259.66
950	1249.15
950.285	1250.06
950.57	1251.01
950.855	1249.36
951.14	1241.2
951.425	1231.71
951.709	1218.25
951.994	1205.29
952.278	1196.38
952.563	1186.72
952.847	1176.39
953.132	1172.71
953.416	1172.79
953.7	1167.12
953.984	1164.47
954.268	1158.28
954.552	1147.7
954.836	1132.13
955.12	1122.68
955.404	1113.81
955.687	1104.44
955.971	1099.9
956.254	1088.91
956.538	1079.69
956.821	1068.45
957.105	1061.03
957.388	1053.7
957.671	1041.92
957.954	1032.68
958.237	1025.95
958.52	1010.67
958.803	1002.32
959.086	988.78
959.369	980.72
959.652	969.4
959.934	959.91
960.217	952.96
960.499	946.95
960.782	932.68
961.064	927.57
961.346	921.51
961.629	909.4
961.911	899.98
962.193	896.47
962.475	888.06
962.757	880.02
963.039	876.89
963.32	873.05
963.602	863.45
963.884	856.84
964.165	853.34
964.447	844.18
964.728	834.31
965.01	826.27
965.291	819.43
965.572	813.2
965.853	811.5
966.134	802.85
966.415	802.51
966.696	798.73
966.977	791.39
967.258	788.51
967.539	779.6
967.819	772.59
968.1	761.33
968.38	753.05
968.661	742.9
968.941	735.63
969.222	732.79
969.502	731.1
969.782	728.56
970.062	728.09
970.342	726.57
970.622	723.25
970.902	714.19
971.182	706.69
971.462	700.66
971.741	696.69
972.021	688.34
972.3	684.09
972.58	681.23
972.859	674.49
973.138	669.2
973.418	667.34
973.697	662.91
973.976	656.65
974.255	648.72
974.534	640.32
974.813	634.6
975.092	631.95
975.37	631.43
975.649	631.5
975.928	628.12
976.206	627.79
976.485	620.41
976.763	616.23
977.041	606.19
977.32	603.03
977.598	593.33
977.876	587.18
978.154	584.79
978.432	578.48
978.71	575.99
978.988	575.53
979.265	570.8
979.543	569.22
979.821	562.99
980.098	560.73
980.376	554.17
980.653	550.86
980.93	542
981.208	538.96
981.485	538.91
981.762	537.36
982.039	534.37
982.316	531.51
982.593	531.46
982.87	529.32
983.146	526.62
983.423	520.9
983.7	521.69
983.976	514.08
984.253	510.69
984.529	509.3
984.805	503.88
985.082	501.82
985.358	495.58
985.634	493.37
985.91	491.19
986.186	486
986.462	483.25
986.738	481.38
987.013	478.46
987.289	473.91
987.565	470.95
987.84	467.78
988.116	464.14
988.391	462.45
988.666	458.9
988.942	455.85
989.217	456.95
989.492	454.29
989.767	453.03
990.042	451.39
990.317	448.45
990.592	447.56
990.866	446.22
991.141	443
991.416	441.63
991.69	439.98
991.964	437.72
992.239	434.38
992.513	433.69
992.787	430.3
993.062	430.32
993.336	429.09
993.61	427.01
993.884	426.01
994.158	421.55
994.431	420.19
994.705	420.02
994.979	417.76
995.252	414.43
995.526	415.45
995.799	413.9
996.073	414.64
996.346	411.72
996.619	410.38
996.892	409.24
997.165	407.01
997.438	406.21
997.711	403.21
997.984	405.17
998.257	401.76
998.53	401.46
998.802	400.9
999.075	402.06
999.347	398.61
999.62	397.19
999.892	396.89
1000.165	396.39
1000.437	394.01
1000.709	394.78
1000.981	393.86
1001.253	391
1001.525	391.8
1001.797	391.14
1002.068	388.81
1002.34	390.31
1002.612	387.48
1002.883	387.13
1003.155	386.43
1003.426	385.53
1003.698	385.02
1003.969	384.21
1004.24	384.18
1004.511	382.09
1004.782	382.76
1005.053	382.32
1005.324	379.01
1005.595	378.57
1005.866	377.91
1006.136	376.47
1006.407	376.6
1006.678	377.3
1006.948	377.56
1007.218	376.02
1007.489	374.78
1007.759	375.26
1008.029	373.73
1008.299	374.34
1008.569	374.54
1008.839	373
1009.109	374.26
1009.379	372.89
1009.649	371.62
1009.918	372.66
1010.188	370.77
1010.458	371.08
1010.727	370.37
1010.996	370.79
1011.266	368.71
1011.535	369.8
1011.804	369.13
1012.073	368.92
1012.342	370.77
1012.611	368.14
1012.88	369.03
1013.149	369.9
1013.417	368.19
1013.686	365.03
1013.955	366.05
1014.223	366.89
1014.492	366.91
1014.76	367.48
1015.028	365.62
1015.296	364.88
1015.565	365.54
1015.833	364.9
1016.101	365.64
1016.368	365.95
1016.636	364.57
1016.904	363.66
1017.172	362.37
1017.439	363.62
1017.707	366.01
1017.974	363.05
1018.242	365.91
1018.509	363.01
1018.776	363.7
1019.044	363.42
1019.311	362.79
1019.578	362.54
1019.845	364.02
1020.112	362.98
1020.378	362.98
1020.645	362.98
