Data from 190814_film_FLMS138901_22-21-34-114.txt Node
Date: Wed Aug 14 22:21:34 EDT 2019
User: pSAM
Spectrometer: FLMS13890
Trigger mode: 0
Integration Time (sec): 6.000000E-2
Scans to average: 60
Electric dark correction enabled: true
Nonlinearity correction enabled: false
Boxcar width: 0
XAxis mode: Wavelengths
Number of Pixels in Spectrum: 2048
>>>>>Begin Spectral Data<<<<<
342.097	-63.15
342.483	-63.15
342.868	-63.15
343.254	-117.56
343.639	-104.79
344.025	-96.66
344.41	-98.49
344.796	-94.95
345.181	-82.3
345.567	-66.93
345.952	-52.09
346.337	-31.95
346.722	-21.79
347.107	-2.71
347.493	18.84
347.878	41.49
348.263	56.9
348.648	78.58
349.033	94.97
349.418	116.69
349.802	140.39
350.187	155.69
350.572	169.39
350.957	199.77
351.342	207.98
351.726	231.49
352.111	237.35
352.495	254.26
352.88	264.47
353.264	275.33
353.649	287.16
354.033	304.04
354.418	304.29
354.802	329.34
355.186	327.63
355.57	317.95
355.955	333.53
356.339	335.27
356.723	328.77
357.107	337.27
357.491	471.96
357.875	348.86
358.259	343.24
358.643	347.43
359.026	344.63
359.41	347.72
359.794	344.79
360.178	334.34
360.561	343.24
360.945	341.21
361.329	351.58
361.712	341.7
362.096	337.59
362.479	338.49
362.862	334.46
363.246	327.18
363.629	328.12
364.012	330.15
364.396	323.03
364.779	335.03
365.162	332.26
365.545	322.18
365.928	327.34
366.311	327.63
366.694	324.25
367.077	315.43
367.46	319.58
367.843	316.97
368.226	320.1
368.608	315.31
368.991	316.08
369.374	316.08
369.756	318.6
370.139	313.39
370.521	318.8
370.904	308.76
371.286	316.32
371.669	315.18
372.051	315.55
372.433	321.69
372.816	320.39
373.198	316.08
373.58	316.81
373.962	324.82
374.344	320.67
374.726	325.11
375.108	316.36
375.49	321.41
375.872	326.57
376.254	316.28
376.636	325.39
377.018	318.48
377.399	322.83
377.781	326.69
378.163	328.89
378.544	329.09
378.926	330.11
379.307	328.36
379.689	326.65
380.07	332.31
380.452	332.14
380.833	331.69
381.214	334.22
381.596	325.07
381.977	338.53
382.358	331.33
382.739	332.87
383.12	338.85
383.501	334.38
383.882	336.25
384.263	336.9
384.644	333.16
385.025	338.28
385.406	336.78
385.787	336.13
386.167	331.94
386.548	328.6
386.929	328.52
387.309	331.37
387.69	342.72
388.07	333.32
388.451	341.7
388.831	339.63
389.211	341.21
389.592	334.91
389.972	342.11
390.352	344.06
390.733	336.62
391.113	337.8
391.493	343.33
391.873	346.29
392.253	348.49
392.633	356.83
393.013	342.59
393.393	342.11
393.772	344.02
394.152	344.26
394.532	340.8
394.912	352.64
395.291	342.96
395.671	343.49
396.05	348.33
396.43	355.2
396.809	351.95
397.189	345.03
397.568	349.43
397.948	344.1
398.327	353.13
398.706	350.48
399.085	349.75
399.465	355.61
399.844	356.1
400.223	341.37
400.602	352.8
400.981	352.84
401.36	346.21
401.739	353.45
402.117	345.16
402.496	352.07
402.875	353.9
403.254	351.62
403.632	349.34
404.011	361.22
404.39	354.88
404.768	359.15
405.147	353.17
405.525	358.9
405.903	352.84
406.282	359.39
406.66	355.49
407.038	361.87
407.417	358.33
407.795	366.47
408.173	354.79
408.551	355.28
408.929	359.15
409.307	351.05
409.685	364.84
410.063	358.7
410.441	363.05
410.818	362.03
411.196	364.11
411.574	355.97
411.952	360.77
412.329	362.44
412.707	366.83
413.084	361.26
413.462	367.24
413.839	383.3
414.217	366.14
414.594	367.77
414.971	365.94
415.349	364.39
415.726	370.25
416.103	367.81
416.48	369.92
416.857	359.88
417.234	367.81
417.611	370.09
417.988	361.91
418.365	373.22
418.742	370.7
419.119	370.13
419.495	366.3
419.872	368.54
420.249	450.4
420.625	371.59
421.002	375.98
421.379	375.86
421.755	373.18
422.131	376.39
422.508	375.37
422.884	374.11
423.26	379.48
423.637	372.48
424.013	380.7
424.389	382.53
424.765	382.94
425.141	380.29
425.517	376.27
425.893	377
426.269	386.35
426.645	382.73
427.021	377.85
427.397	380.17
427.772	378.38
428.148	376.88
428.524	379.28
428.899	384.24
429.275	385.25
429.651	375.66
430.026	387.78
430.401	386.27
430.777	385.95
431.152	383.22
431.527	387.9
431.903	382.9
432.278	386.51
432.653	383.22
433.028	393.06
433.403	385.13
433.778	385.62
434.153	398.47
434.528	387.61
434.903	393.39
435.278	388.59
435.653	382.29
436.027	378.83
436.402	381.47
436.777	391.56
437.151	398.47
437.526	387.82
437.9	383.3
438.275	396.07
438.649	391.35
439.023	396.07
439.398	395.62
439.772	397.41
440.146	389.4
440.52	391.92
440.895	399.33
441.269	398.55
441.643	395.87
442.017	406.08
442.391	407.62
442.765	401.68
443.138	396.48
443.512	401.52
443.886	402.82
444.26	401.64
444.633	405.67
445.007	404.08
445.38	400.63
445.754	406.2
446.127	402.25
446.501	407.05
446.874	412.5
447.248	396.11
447.621	409
447.994	403.31
448.367	399.53
448.741	401.77
449.114	412.01
449.487	409.98
449.86	405.02
450.233	402.94
450.606	403.07
450.978	402.33
451.351	434.01
451.724	403.19
452.097	414.41
452.469	402.09
452.842	410.43
453.215	396.15
453.587	403.96
453.96	402.09
454.332	406.65
454.704	418.72
455.077	400.22
455.449	416.97
455.821	412.7
456.194	415.55
456.566	414.82
456.938	412.05
457.31	414.58
457.682	409.17
458.054	406.93
458.426	414.78
458.798	413.27
459.17	431.74
459.541	428.32
459.913	418.28
460.285	415.35
460.656	411.69
461.028	416.93
461.399	410.31
461.771	411.81
462.142	425.43
462.514	413.76
462.885	415.92
463.256	422.38
463.628	420.19
463.999	422.47
464.37	427.3
464.741	431.78
465.112	419.62
465.483	424.17
465.854	425.27
466.225	423.85
466.596	424.46
466.967	428.77
467.338	420.92
467.708	429.66
468.079	423.48
468.45	424.21
468.82	419.74
469.191	426.74
469.561	429.05
469.932	426.9
470.302	427.55
470.673	429.5
471.043	425.6
471.413	427.87
471.783	436.37
472.154	431.37
472.524	437.55
472.894	431.86
473.264	432.55
473.634	435.93
474.004	443.04
474.374	439.46
474.743	449.35
475.113	441.9
475.483	444.02
475.853	451.66
476.222	445.81
476.592	450.89
476.961	444.59
477.331	446.54
477.7	455.04
478.07	455.16
478.439	448.09
478.808	456.26
479.178	453.21
479.547	452.15
479.916	456.59
480.285	461.59
480.654	456.87
481.023	458.54
481.392	465.78
481.761	466.3
482.13	464.72
482.499	467.28
482.867	469.64
483.236	477.37
483.605	478.42
483.973	486.92
484.342	479.97
484.71	480.09
485.079	494.12
485.447	511.53
485.816	554.72
486.184	590.34
486.552	585.7
486.921	552.68
487.289	521.86
487.657	512.91
488.025	504.86
488.393	492.09
488.761	495.26
489.129	494.2
489.497	505.39
489.865	515.02
490.233	515.92
490.6	517.1
490.968	518.52
491.336	505.87
491.703	511.28
492.071	521.08
492.438	515.68
492.806	509.05
493.173	526.13
493.541	520.72
493.908	517.26
494.275	528.53
494.642	522.1
495.01	524.3
495.377	513.97
495.744	521.21
496.111	525.35
496.478	537.72
496.845	535.68
497.211	537.88
497.578	528.57
497.945	529.01
498.312	527.79
498.678	531.94
499.045	545.53
499.412	536.94
499.778	543.04
500.145	550.36
500.511	544.35
500.878	547.92
501.244	546.83
501.61	553.58
501.976	549.51
502.343	553.86
502.709	553.01
503.075	559.15
503.441	560.25
503.807	553.98
504.173	553.98
504.539	560.65
504.905	560.57
505.27	561.87
505.636	564.44
506.002	571.63
506.367	569.44
506.733	562.48
507.099	571.96
507.464	568.01
507.829	568.75
508.195	571.43
508.56	572.2
508.926	568.79
509.291	575.9
509.656	566.22
510.021	573.22
510.386	568.99
510.751	578.14
511.116	579.73
511.481	580.95
511.846	592.46
512.211	577.12
512.576	589.53
512.941	592.13
513.305	580.5
513.67	583.71
514.035	593.76
514.399	591.15
514.764	586.84
515.128	583.18
515.493	593.31
515.857	597.66
516.221	586.31
516.585	592.58
516.95	594.53
517.314	599.04
517.678	595.34
518.042	591.28
518.406	607.1
518.77	603.96
519.134	607.18
519.498	607.5
519.862	598.39
520.225	606.69
520.589	604.94
520.953	610.27
521.316	612.42
521.68	611.69
522.043	612.22
522.407	610.76
522.77	608.68
523.134	611.98
523.497	611.61
523.86	608.56
524.223	609.5
524.587	616.69
524.95	615.35
525.313	619.01
525.676	622.87
526.039	635.81
526.402	633.45
526.765	627.02
527.127	623.08
527.49	639.96
527.853	638.29
528.215	629.54
528.578	637.23
528.941	651.02
529.303	648.62
529.666	637.68
530.028	649.88
530.39	654.8
530.753	649.96
531.115	657.36
531.477	649.19
531.839	648.54
532.201	651.46
532.564	662.77
532.926	663.18
533.287	665.66
533.649	666.88
534.011	669.28
534.373	682.62
534.735	679.65
535.097	677.17
535.458	679.65
535.82	684.57
536.181	688.72
536.543	676.27
536.904	694.49
537.266	697.83
537.627	699.05
537.988	696.65
538.35	697.87
538.711	711.04
539.072	713.81
539.433	705.67
539.794	717.35
540.155	720.03
540.516	718.61
540.877	725.11
541.238	721.33
541.599	736.22
541.959	724.38
542.32	734.1
542.681	738.53
543.041	736.91
543.402	746.63
543.762	748.17
544.123	743.41
544.483	753.3
544.844	764.97
545.204	754.31
545.564	751.71
545.924	759.56
546.284	744.35
546.644	755.82
547.004	769.2
547.364	771.31
547.724	767.61
548.084	776.8
548.444	783.19
548.804	792.58
549.164	793.03
549.523	773.71
549.883	788.88
550.242	780.83
550.602	787.21
550.961	776.76
551.321	784.41
551.68	778.75
552.04	780.26
552.399	794.57
552.758	794.45
553.117	796.85
553.476	815.76
553.835	801.2
554.194	819.42
554.553	804.05
554.912	812.51
555.271	811.29
555.63	813.36
555.989	818.2
556.347	831.42
556.706	823.12
557.065	830.16
557.423	819.58
557.782	832.19
558.14	834.27
558.499	831.66
558.857	833.94
559.215	838.01
559.573	837.76
559.932	839.23
560.29	852.32
560.648	852
561.006	853.79
561.364	866.35
561.722	858.1
562.08	869.28
562.438	874.2
562.795	868.18
563.153	867.12
563.511	870.99
563.868	893.15
564.226	880.42
564.583	881.93
564.941	891.69
565.298	892.38
565.656	902.38
566.013	893.03
566.37	890.75
566.727	893.76
567.085	916.01
567.442	924.87
567.799	935.69
568.156	940
568.513	961.88
568.87	959.85
569.226	970.79
569.583	996.85
569.94	1022.76
570.297	1041.14
570.653	1052.73
571.01	1056.51
571.366	1064.57
571.723	1083.64
572.079	1104.26
572.436	1108.16
572.792	1116.82
573.148	1101.04
573.505	1102.39
573.861	1139.96
574.217	1180.02
574.573	1189.54
574.929	1197.22
575.285	1195.52
575.641	1193.24
575.997	1207.27
576.352	1211.82
576.708	1220.93
577.064	1231.55
577.42	1250.46
577.775	1282.63
578.131	1302.1
578.486	1337
578.842	1323.41
579.197	1298.12
579.552	1283.48
579.908	1284.29
580.263	1321.95
580.618	1352.45
580.973	1365.1
581.328	1375.96
581.683	1401.37
582.038	1477.3
582.393	1542.08
582.748	1529.84
583.103	1441.31
583.458	1342.65
583.812	1276.04
584.167	1253.1
584.522	1280.67
584.876	1326.63
585.231	1363.11
585.585	1388.28
585.939	1387.87
586.294	1373.19
586.648	1355.42
587.002	1320.73
587.356	1320.49
587.711	1329.92
588.065	1362.46
588.419	1386.61
588.773	1419.19
589.127	1378.97
589.48	1375.59
589.834	1332.56
590.188	1295.48
590.542	1274.57
590.895	1267.5
591.249	1260.54
591.603	1252.61
591.956	1253.47
592.309	1258.75
592.663	1261.84
593.016	1284.66
593.369	1345.13
593.723	1378.89
594.076	1396.94
594.429	1392.87
594.782	1372.74
595.135	1374.09
595.488	1407.07
595.841	1450.95
596.194	1433.95
596.547	1395.84
596.899	1364.65
597.252	1348.26
597.605	1336.51
597.957	1340.37
598.31	1352.61
598.662	1356.6
599.015	1356.4
599.367	1355.95
599.719	1379.82
600.072	1389.13
600.424	1405.03
600.776	1388.36
601.128	1400.93
601.48	1410.77
601.832	1424.56
602.184	1450.62
602.536	1440.98
602.888	1442
603.24	1457.33
603.592	1486.45
603.943	1524.48
604.295	1517.07
604.646	1491.37
604.998	1456.44
605.349	1442.53
605.701	1412.52
606.052	1441.88
606.404	1452.49
606.755	1438.99
607.106	1424.27
607.457	1443.83
607.808	1439.76
608.159	1442.77
608.51	1426.71
608.861	1441.03
609.212	1419.43
609.563	1429.31
609.914	1424.03
610.265	1436.1
610.615	1463.35
610.966	1480.51
611.316	1495.11
611.667	1491.86
612.017	1484.58
612.368	1484.09
612.718	1493.12
613.068	1485.96
613.419	1494.83
613.769	1487.87
614.119	1503.53
614.469	1507.84
614.819	1501.99
615.169	1498.73
615.519	1505.24
615.869	1504.1
616.219	1496.62
616.568	1490.84
616.918	1502.11
617.268	1477.54
617.617	1462.99
617.967	1484.3
618.316	1478.56
618.666	1472.46
619.015	1463.6
619.364	1466.12
619.714	1474.13
620.063	1471.4
620.412	1501.66
620.761	1528.95
621.11	1519.03
621.459	1485.39
621.808	1474.37
622.157	1463.31
622.506	1480.59
622.855	1498.69
623.203	1519.03
623.552	1524.39
623.901	1545.95
624.249	1544.4
624.598	1549.24
624.946	1540.05
625.295	1522.89
625.643	1527.89
625.991	1523.7
626.34	1511.26
626.688	1517.2
627.036	1516.42
627.384	1505.08
627.732	1518.62
628.08	1514.23
628.428	1528.7
628.776	1522.97
629.124	1514.31
629.471	1524.64
629.819	1516.99
630.167	1526.35
630.514	1542.29
630.862	1544
631.209	1527.53
631.557	1524.64
631.904	1524.56
632.251	1521.91
632.599	1528.09
632.946	1526.22
633.293	1536.8
633.64	1539.44
633.987	1542.21
634.334	1541.92
634.681	1535.98
635.028	1531.71
635.375	1534.28
635.722	1551.48
636.068	1565.35
636.415	1572.18
636.762	1587.43
637.108	1596.7
637.455	1594.06
637.801	1594.67
638.147	1594.1
638.494	1586.62
638.84	1609.35
639.186	1600.2
639.532	1594.59
639.878	1622.73
640.225	1607.8
640.571	1609.59
640.916	1616.38
641.262	1613.42
641.608	1623.91
641.954	1617.77
642.3	1618.78
642.645	1597.11
642.991	1621.18
643.337	1616.91
643.682	1636.76
644.028	1626.79
644.373	1647.21
644.718	1644.24
645.064	1646.8
645.409	1636.39
645.754	1640.46
646.099	1656.36
646.444	1644.24
646.789	1665.59
647.134	1655.91
647.479	1679.46
647.824	1681.41
648.169	1674.09
648.513	1688.28
648.858	1682.1
649.203	1691.29
649.547	1705.28
649.892	1716.75
650.236	1738.1
650.581	1720.9
650.925	1733.34
651.269	1742.49
651.613	1734.08
651.958	1730.62
652.302	1744.89
652.646	1753.92
652.99	1760.67
653.334	1766.73
653.678	1763.23
654.022	1775.27
654.365	1759.29
654.709	1786.25
655.053	1798.98
655.396	1837.57
655.74	2056.53
656.083	2586.27
656.427	3706.49
656.77	5369.64
657.114	6865.02
657.457	7112.69
657.8	5491.39
658.143	3491.89
658.486	2442.02
658.83	2072.51
659.173	1940.83
659.516	1884.59
659.858	1853.27
660.201	1856.97
660.544	1843.19
660.887	1821.8
661.229	1820.09
661.572	1819.76
661.915	1815.37
662.257	1834.69
662.6	1835.95
662.942	1827
663.284	1838.27
663.627	1848.07
663.969	1851.28
664.311	1856.4
664.653	1849.04
664.995	1851.65
665.337	1852.5
665.679	1849.65
666.021	1869.74
666.363	1866.86
666.705	1879.67
667.046	1888.73
667.388	1869.54
667.73	1871.04
668.071	1864.54
668.413	1878.61
668.754	1885.89
669.096	1886.9
669.437	1893.49
669.778	1889.39
670.119	1902.2
670.461	1896.58
670.802	1903.99
671.143	1914.56
671.484	1923.06
671.825	1922.29
672.165	1933.59
672.506	1932.09
672.847	1949.04
673.188	1956.08
673.528	1951.61
673.869	1961.69
674.21	1948.39
674.55	1943.47
674.89	1942.54
675.231	1946.93
675.571	1936.89
675.911	1927.94
676.252	1940.95
676.592	1960.51
676.932	1962.06
677.272	1953.84
677.612	1957.02
677.952	1944.73
678.292	1965.11
678.631	1961.98
678.971	1964.95
679.311	1982.31
679.651	1985.4
679.99	1980.68
680.33	1984.02
680.669	2003.17
681.009	2011.35
681.348	2025.13
681.687	2018.06
682.026	2015.58
682.366	2016.43
682.705	2010.21
683.044	2030.71
683.383	2020.34
683.722	2026.6
684.061	1993.33
684.4	2021.47
684.738	2028.96
685.077	2051.12
685.416	2056.81
685.754	2082.39
686.093	2104.07
686.431	2129.08
686.77	2126.72
687.108	2111.39
687.447	2091.99
687.785	2073.81
688.123	2081.42
688.461	2080.08
688.799	2054.5
689.137	2078.21
689.475	2082.76
689.813	2069.26
690.151	2078.33
690.489	2081.13
690.827	2082.19
691.164	2086.38
691.502	2080.85
691.84	2088.29
692.177	2094.07
692.515	2116.72
692.852	2115.74
693.189	2119.44
693.527	2105.78
693.864	2119.48
694.201	2119.04
694.538	2118.55
694.875	2140.51
695.212	2113.38
695.549	2108.34
695.886	2106.63
696.223	2131.68
696.56	2121.03
696.897	2141.97
697.233	2117.53
697.57	2127.45
697.906	2148.64
698.243	2162.14
698.579	2172.8
698.916	2164.46
699.252	2161.17
699.588	2148.52
699.924	2151.89
700.261	2149.17
700.597	2149.62
700.933	2152.26
701.269	2147.67
701.605	2157.02
701.941	2142.62
702.276	2130.63
702.612	2135.02
702.948	2141.61
703.283	2171.46
703.619	2160.43
703.954	2178.17
704.29	2152.83
704.625	2176.3
704.961	2163.2
705.296	2178.65
705.631	2166.33
705.966	2155.68
706.301	2150.96
706.637	2150.59
706.972	2170.4
707.306	2173.9
707.641	2218.96
707.976	2204.48
708.311	2239.61
708.646	2244.58
708.98	2240.79
709.315	2229.69
709.649	2220.58
709.984	2228.23
710.318	2210.66
710.653	2199.64
710.987	2182.76
711.321	2197.48
711.655	2208.02
711.989	2215.91
712.324	2195.33
712.658	2200.74
712.992	2209.03
713.325	2188.86
713.659	2219.36
713.993	2206.84
714.327	2226.72
714.66	2242.01
714.994	2229.12
715.328	2242.42
715.661	2240.96
715.994	2251.04
716.328	2242.62
716.661	2242.66
716.994	2248.68
717.328	2207.16
717.661	2220.95
717.994	2212.2
718.327	2201.1
718.66	2207.93
718.993	2199.48
719.325	2203.91
719.658	2210.33
719.991	2221.31
720.324	2209.93
720.656	2205.29
720.989	2206.23
721.321	2207.69
721.654	2190.49
721.986	2189.84
722.318	2178.74
722.651	2181.58
722.983	2179.96
723.315	2164.05
723.647	2166.25
723.979	2168.57
724.311	2170.44
724.643	2158.4
724.975	2165.56
725.307	2172.84
725.638	2192.93
725.97	2177.43
726.302	2208.38
726.633	2196.1
726.965	2244.09
727.296	2238.39
727.628	2218.75
727.959	2203.05
728.29	2213.99
728.621	2207
728.952	2229.9
729.284	2202.77
729.615	2203.95
729.945	2187.32
730.276	2197.24
730.607	2206.27
730.938	2202.85
731.269	2209.72
731.599	2217.98
731.93	2216.92
732.261	2217.37
732.591	2231.07
732.922	2235.06
733.252	2237.22
733.582	2226.48
733.912	2224.93
734.243	2196.43
734.573	2202.97
734.903	2228.8
735.233	2213.1
735.563	2237.46
735.893	2234.33
736.223	2240.22
736.552	2238.27
736.882	2231.89
737.212	2232.95
737.541	2226.4
737.871	2221.4
738.2	2213.63
738.53	2225.54
738.859	2220.46
739.188	2196.63
739.518	2180.2
739.847	2162.88
740.176	2177.27
740.505	2186.95
740.834	2186.42
741.163	2187.97
741.492	2200.98
741.821	2184.51
742.15	2180
742.478	2174.34
742.807	2144.82
743.136	2143.52
743.464	2142.18
743.793	2134.65
744.121	2126.76
744.449	2107.28
744.778	2111.96
745.106	2122.53
745.434	2113.55
745.762	2105.82
746.09	2114.77
746.418	2099.68
746.746	2097.44
747.074	2091.06
747.402	2102.04
747.73	2104.72
748.057	2121.6
748.385	2119.32
748.712	2129.81
749.04	2119.73
749.367	2112.94
749.695	2092.64
750.022	2112.53
750.349	2111.84
750.677	2108.83
751.004	2176.54
751.331	2117.41
751.658	2123.35
751.985	2112.53
752.312	2110.9
752.639	2077.15
752.966	2095.33
753.292	2063.77
753.619	2057.26
753.946	2070.88
754.272	2051.32
754.599	2073
754.925	2088.49
755.251	2080.77
755.578	2087.19
755.904	2067.1
756.23	2060.23
756.556	2074.75
756.882	2066.66
757.208	2069.05
757.534	2086.95
757.86	2098.29
758.186	2098.21
758.512	2104.11
758.838	2112.57
759.163	2125.79
759.489	2114.72
759.814	2092.44
760.14	2104.27
760.465	2111.27
760.791	2078.57
761.116	2077.84
761.441	2068.69
761.766	2067.75
762.092	2052.87
762.417	2033.47
762.742	2024.16
763.066	2013.22
763.391	1999.43
763.716	1979.46
764.041	1985.36
764.366	1997.64
764.69	2002.81
765.015	1984.51
765.339	2000.16
765.664	2026.07
765.988	2024.65
766.312	2013.38
766.637	2000.73
766.961	1970.88
767.285	1948.35
767.609	1962.42
767.933	1919.24
768.257	1910.65
768.581	1884.1
768.905	1896.5
769.229	1903.9
769.552	1923.67
769.876	1960.27
770.2	1974.87
770.523	1977.72
770.847	1953.97
771.17	1961.2
771.493	1960.19
771.817	1940.83
772.14	1941.77
772.463	1921.47
772.786	1916.59
773.109	1892.31
773.432	1891.5
773.755	1873.28
774.078	1858.76
774.401	1847.42
774.724	1841.52
775.046	1831.27
775.369	1830.82
775.692	1808.99
776.014	1800.32
776.336	1781.82
776.659	1779.91
776.981	1786.21
777.303	1775.6
777.626	1766.08
777.948	1775.52
778.27	1773.12
778.592	1780.56
778.914	1779.34
779.236	1766.61
779.557	1775.07
779.879	1797.03
780.201	1795.97
780.523	1802.44
780.844	1818.3
781.166	1819.84
781.487	1822.57
781.809	1812.69
782.13	1813.7
782.451	1841.76
782.772	1830.62
783.094	1828.38
783.415	1836.44
783.736	1824.89
784.057	1839.45
784.378	1853.44
784.698	1819.15
785.019	1819.27
785.34	1814.96
785.661	1820.45
785.981	1805.08
786.302	1819.4
786.622	1814.07
786.943	1835.38
787.263	1811.51
787.583	1812.28
787.903	1820.33
788.224	1809.11
788.544	1825.54
788.864	1806.06
789.184	1829.85
789.504	1840.22
789.824	1842.21
790.143	1840.75
790.463	1824.72
790.783	1829.77
791.102	1837.7
791.422	1842.17
791.741	1838.88
792.061	1838.27
792.38	1825.25
792.699	1821.35
793.019	1826.35
793.338	1810.9
793.657	1812.2
793.976	1810.41
794.295	1806.95
794.614	1803.29
794.933	1823.71
795.252	1834.57
795.57	1847.13
795.889	1845.55
796.208	1852.66
796.526	1841.4
796.845	1835.38
797.163	1821.84
797.482	1805.04
797.8	1791.01
798.118	1790.64
798.436	1792.19
798.754	1779.3
799.073	1764.17
799.391	1769.62
799.708	1767.87
800.026	1758.19
800.344	1770.88
800.662	1760.39
800.98	1758.8
801.297	1753.23
801.615	1753.39
801.932	1759.33
802.25	1746.48
802.567	1760.75
802.884	1754.53
803.202	1755.91
803.519	1729.72
803.836	1735.95
804.153	1723.91
804.47	1721.23
804.787	1724.03
805.104	1705.57
805.421	1711.63
805.737	1714.39
806.054	1699.31
806.371	1703.45
806.687	1696.05
807.004	1687.02
807.32	1697.6
807.637	1719.27
807.953	1723.22
808.269	1683.08
808.585	1680.07
808.902	1679.22
809.218	1680.39
809.534	1678.24
809.85	1680.39
810.165	1654.37
810.481	1671.98
810.797	1656.44
811.113	1650.67
811.428	1629.11
811.744	1636.92
812.059	1626.43
812.375	1622
812.69	1619.76
813.006	1596.29
813.321	1600.97
813.636	1607.56
813.951	1600.36
814.266	1602.23
814.581	1601.46
814.896	1601.34
815.211	1604.47
815.526	1601.5
815.841	1593.77
816.155	1583.93
816.47	1575.59
816.784	1580.23
817.099	1571.81
817.413	1558.55
817.728	1560.55
818.042	1548.75
818.356	1551.15
818.67	1544.24
818.985	1540.66
819.299	1537.69
819.613	1528.14
819.926	1518.99
820.24	1530.53
820.554	1523.42
820.868	1510.97
821.182	1504.26
821.495	1514.47
821.809	1498.45
822.122	1495.48
822.436	1523.21
822.749	1505.85
823.062	1488.97
823.376	1488.89
823.689	1476.37
824.002	1481.2
824.315	1477.83
824.628	1484.46
824.941	1473.93
825.254	1464.86
825.566	1454.89
825.879	1448.55
826.192	1441.72
826.504	1443.87
826.817	1454.81
827.129	1458.43
827.442	1422.56
827.754	1440.9
828.066	1444.03
828.379	1420.53
828.691	1425.49
829.003	1417.93
829.315	1422.36
829.627	1410.93
829.939	1417.76
830.251	1415.57
830.562	1413.25
830.874	1408.13
831.186	1390.92
831.497	1383.56
831.809	1390.64
832.12	1384.86
832.432	1365.59
832.743	1379.54
833.054	1371.93
833.365	1364.85
833.676	1347.33
833.988	1350.95
834.299	1350.09
834.61	1360.5
834.92	1355.79
835.231	1352.61
835.542	1346.72
835.853	1350.58
836.163	1349.48
836.474	1328.05
836.784	1330.41
837.095	1325.08
837.405	1330.21
837.715	1320.53
838.026	1332.77
838.336	1312.52
838.646	1313.25
838.956	1294.83
839.266	1292.59
839.576	1283.6
839.886	1271.36
840.195	1270.3
840.505	1265.18
840.815	1273.31
841.124	1269.45
841.434	1270.63
841.743	1261.72
842.053	1260.87
842.362	1256.76
842.671	1242.16
842.981	1235.61
843.29	1226.02
843.599	1236.63
843.908	1226.22
844.217	1236.51
844.526	1224.15
844.835	1236.59
845.143	1216.26
845.452	1217.23
845.761	1218.37
846.069	1195.23
846.378	1196.65
846.686	1197.39
846.995	1194.5
847.303	1196.57
847.611	1193.03
847.919	1176.24
848.227	1179.7
848.535	1176.56
848.843	1168.67
849.151	1153.06
849.459	1162.09
849.767	1166.48
850.075	1164.65
850.382	1153.26
850.69	1146.88
850.998	1144.8
851.305	1149.64
851.612	1143.46
851.92	1129.1
852.227	1136.26
852.534	1131.95
852.841	1137.44
853.148	1129.84
853.455	1138.78
853.762	1144.97
854.069	1147.41
854.376	1153.22
854.683	1140.53
854.99	1135.98
855.296	1137.36
855.603	1126.91
855.909	1139.07
856.216	1134.31
856.522	1124.39
856.828	1107.19
857.135	1116.38
857.441	1107.06
857.747	1087.79
858.053	1105.72
858.359	1089.25
858.665	1088.93
858.971	1073.92
859.276	1079.86
859.582	1073.35
859.888	1060.54
860.193	1060.21
860.499	1060.34
860.804	1049.4
861.11	1051.39
861.415	1059.93
861.72	1051.8
862.026	1041.83
862.331	1035.2
862.636	1036.55
862.941	1025.69
863.246	1023.21
863.551	1023.13
863.855	1020.81
864.16	1018.08
864.465	1006.74
864.769	1014.91
865.074	1016.05
865.378	1001.9
865.683	996.2
865.987	1006.17
866.291	994.05
866.596	988.35
866.9	980.06
867.204	983.68
867.508	979.53
867.812	981.36
868.116	983.27
868.42	983.15
868.723	962.41
869.027	962.04
869.331	967.13
869.634	965.01
869.938	956.06
870.241	963.18
870.544	950.82
870.848	952.2
871.151	948.26
871.454	948.91
871.757	943.66
872.06	938.58
872.363	934.47
872.666	925.89
872.969	920.28
873.272	920.36
873.574	924.38
873.877	911.49
874.18	916.05
874.482	920.32
874.785	917.31
875.087	906.86
875.389	902.91
875.692	894.13
875.994	900.39
876.296	892.01
876.598	904.34
876.9	889.69
877.202	880.18
877.504	878.88
877.805	881.56
878.107	867.41
878.409	870.46
878.71	878.76
879.012	869.44
879.313	858.79
879.615	872.33
879.916	873.02
880.217	861.23
880.518	872.9
880.82	869.89
881.121	855.49
881.422	863.1
881.723	856.39
882.023	857.12
882.324	852
882.625	847.56
882.926	849.72
883.226	853.34
883.527	841.95
883.827	840.73
884.128	847.03
884.428	840.61
884.728	843.13
885.028	832.03
885.328	833.9
885.629	824.26
885.929	825.52
886.228	824.42
886.528	821.33
886.828	823.04
887.128	833.13
887.427	829.51
887.727	820.15
888.027	819.42
888.326	816.62
888.625	812.47
888.925	812.1
889.224	813.4
889.523	814.83
889.822	800.96
890.121	806.61
890.42	817.31
890.719	801.28
891.018	792.09
891.317	792.82
891.616	794.53
891.914	795.59
892.213	787.99
892.512	780.18
892.81	791.6
893.108	781.23
893.407	783.06
893.705	777.74
894.003	779.49
894.301	765.66
894.599	767.85
894.897	777.94
895.195	771.27
895.493	768.14
895.791	766.47
896.089	771.96
896.386	767.41
896.684	771.84
896.981	765.74
897.279	764.4
897.576	771.84
897.874	755.04
898.171	772.69
898.468	764.07
898.765	768.26
899.062	774.12
899.359	760.98
899.656	766.92
899.953	766.63
900.25	767.94
900.547	768.51
900.843	760.09
901.14	765.09
901.436	753.74
901.733	758.3
902.029	769.24
902.325	766.84
902.622	759.31
902.918	772.61
903.214	777.41
903.51	771.51
903.806	761.63
904.102	756.92
904.398	770.78
904.694	755.37
904.989	765.9
905.285	772.65
905.581	769.07
905.876	777.09
906.171	778.18
906.467	772.94
906.762	763.79
907.057	774.36
907.353	769.4
907.648	766.76
907.943	771.19
908.238	761.47
908.533	768.46
908.827	762.93
909.122	760.78
909.417	765.41
909.711	749.03
910.006	753.42
910.301	752.12
910.595	753.34
910.889	761.14
911.184	761.71
911.478	764.93
911.772	770.25
912.066	772.33
912.36	764.52
912.654	747.56
912.948	768.18
913.242	764.52
913.536	762.36
913.829	753.87
914.123	766.31
914.416	750.57
914.71	769.16
915.003	755.61
915.297	745.41
915.59	741.58
915.883	734.26
916.176	751.79
916.469	744.84
916.762	747.77
917.055	739.59
917.348	736.66
917.641	736.99
917.934	743.05
918.226	734.39
918.519	739.47
918.811	747.97
919.104	749.92
919.396	745.85
919.689	739.18
919.981	737.07
920.273	739.59
920.565	730.97
920.857	725.93
921.149	719.83
921.441	717.67
921.733	728.16
922.025	709.25
922.316	714.74
922.608	702.05
922.9	713.24
923.191	701.28
923.483	706.32
923.774	703.93
924.065	700.67
924.357	707.1
924.648	690.63
924.939	699.21
925.23	692.38
925.521	689.73
925.812	685.79
926.102	692.9
926.393	681.44
926.684	679.89
926.975	678.02
927.265	675.99
927.556	678.18
927.846	670.01
928.136	664.8
928.427	661.92
928.717	666.31
929.007	657.28
929.297	662.81
929.587	657.08
929.877	655.21
930.167	664.07
930.457	660.49
930.746	651.38
931.036	645.45
931.325	650.85
931.615	637.52
931.904	627.84
932.194	632.55
932.483	627.14
932.772	619.54
933.062	619.26
933.351	633.2
933.64	616.77
933.929	617.59
934.218	605.92
934.506	607.62
934.795	603.6
935.084	612.83
935.372	607.79
935.661	596.77
935.949	593.55
936.238	605.51
936.526	588.19
936.815	579.93
937.103	582.7
937.391	585.3
937.679	566.79
937.967	561.02
938.255	562.89
938.543	548.21
938.831	549.06
939.118	537.8
939.406	531.09
939.693	535.48
939.981	529.99
940.268	522.71
940.556	517.99
940.843	513.76
941.13	496.24
941.418	496.24
941.705	490.62
941.992	483.79
942.279	487.94
942.566	476.96
942.852	481.88
943.139	475.45
943.426	481.07
943.712	468.62
943.999	472.53
944.285	470.9
944.572	454.31
944.858	456.67
945.144	458.66
945.431	456.42
945.717	459.68
946.003	457.11
946.289	452.72
946.575	451.99
946.861	451.75
947.146	445.28
947.432	456.42
947.718	443.9
948.003	447.39
948.289	455.81
948.574	437.35
948.86	445.73
949.145	453.9
949.43	456.1
949.715	449.35
950	449.79
950.285	447.43
950.57	447.43
950.855	444.18
951.14	452.32
951.425	454.23
951.709	457.68
951.994	446.95
952.278	448.49
952.563	452.93
952.847	457.32
953.132	455.98
953.416	460.25
953.7	453.17
953.984	469.52
954.268	462.81
954.552	458.86
954.836	461.14
955.12	469.35
955.404	470.09
955.687	474.48
955.971	475.78
956.254	469.11
956.538	465.69
956.821	464.15
957.105	472.08
957.388	459.72
957.671	457.24
957.954	472.16
958.237	469.56
958.52	470.82
958.803	475.29
959.086	465.86
959.369	473.22
959.652	471.59
959.934	476.55
960.217	465.29
960.499	473.5
960.782	469.96
961.064	473.22
961.346	475.21
961.629	470.29
961.911	472.4
962.193	482
962.475	470.62
962.757	468.01
963.039	472.97
963.32	473.18
963.602	466.91
963.884	467.28
964.165	469.96
964.447	469.23
964.728	470.94
965.01	471.71
965.291	472.04
965.572	467.32
965.853	478.46
966.134	469.44
966.415	487.41
966.696	466.26
966.977	470.05
967.258	467.81
967.539	472.73
967.819	471.02
968.1	471.84
968.38	466.43
968.661	466.3
968.941	474.11
969.222	460.94
969.502	460.65
969.782	462.36
970.062	459.96
970.342	455.69
970.622	464.56
970.902	472.24
971.182	466.67
971.462	462.6
971.741	460.33
972.021	456.54
972.3	457.93
972.58	458.98
972.859	458.9
973.138	447.15
973.418	456.54
973.697	459.84
973.976	465.33
974.255	454.15
974.534	451.38
974.813	460.94
975.092	456.63
975.37	450.57
975.649	463.99
975.928	455.93
976.206	453.45
976.485	451.83
976.763	462.73
977.041	447.68
977.32	448.57
977.598	448.33
977.876	447.64
978.154	448.61
978.432	454.55
978.71	446.74
978.988	444.1
979.265	437.06
979.543	443.61
979.821	443.57
980.098	452.36
980.376	434.79
980.653	443.86
980.93	444.18
981.208	435.11
981.485	433.2
981.762	440.24
982.039	436.98
982.316	443.98
982.593	438.2
982.87	429.09
983.146	431.33
983.423	436.78
983.7	430.84
983.976	434.87
984.253	436.41
984.529	428.2
984.805	433.45
985.082	430.8
985.358	440.28
985.634	431.21
985.91	434.71
986.186	414.82
986.462	425.11
986.738	426.74
987.013	421.86
987.289	422.71
987.565	433.04
987.84	427.79
988.116	419.37
988.391	416.73
988.666	420.76
988.942	430.76
989.217	425.27
989.492	413.23
989.767	415.27
990.042	421.2
990.317	426.08
990.592	413.07
990.866	414.86
991.141	423.12
991.416	417.79
991.69	409.41
991.964	417.1
992.239	411.32
992.513	417.26
992.787	409.7
993.062	413.23
993.336	415.27
993.61	413.31
993.884	413.03
994.158	408.88
994.431	409.74
994.705	402.01
994.979	411.32
995.252	412.3
995.526	412.5
995.799	405.91
996.073	401.48
996.346	398.88
996.619	402.13
996.892	395.46
997.165	402.9
997.438	399.94
997.711	399.37
997.984	396.68
998.257	398.11
998.53	392.49
998.802	400.99
999.075	398.19
999.347	394.53
999.62	403.39
999.892	390.05
1000.165	385.9
1000.437	386.27
1000.709	396.8
1000.981	392.86
1001.253	398.02
1001.525	392.21
1001.797	397.86
1002.068	398.96
1002.34	389
1002.612	394.61
1002.883	389.61
1003.155	380.78
1003.426	391.72
1003.698	397.25
1003.969	390.3
1004.24	381.02
1004.511	385.74
1004.782	387.57
1005.053	386.03
1005.324	377.89
1005.595	383.71
1005.866	377.81
1006.136	380.5
1006.407	382.73
1006.678	383.42
1006.948	384.36
1007.218	382.9
1007.489	376.23
1007.759	372.24
1008.029	381.35
1008.299	379.97
1008.569	394.16
1008.839	374.56
1009.109	382.61
1009.379	373.38
1009.649	377.49
1009.918	374.23
1010.188	383.55
1010.458	375.9
1010.727	375.98
1010.996	378.75
1011.266	369.72
1011.535	376.14
1011.804	369.84
1012.073	362.77
1012.342	377.16
1012.611	375.21
1012.88	371.18
1013.149	370
1013.417	369.56
1013.686	372.93
1013.955	372.85
1014.223	377.24
1014.492	367.77
1014.76	368.82
1015.028	362.16
1015.296	364.11
1015.565	367.16
1015.833	365.04
1016.101	364.15
1016.368	361.42
1016.636	361.26
1016.904	353.49
1017.172	367.08
1017.439	361.06
1017.707	352.31
1017.974	366.55
1018.242	351.17
1018.509	359.43
1018.776	359.39
1019.044	364.23
1019.311	353.29
1019.578	358.09
1019.845	350.4
1020.112	368.82
1020.378	368.82
1020.645	368.82
