Data from film_gc_FLMS138901_21-49-33-532.txt Node
Date: Wed Aug 14 21:49:33 EDT 2019
User: pSAM
Spectrometer: FLMS13890
Trigger mode: 0
Integration Time (sec): 3.000000E-2
Scans to average: 60
Electric dark correction enabled: true
Nonlinearity correction enabled: false
Boxcar width: 0
XAxis mode: Wavelengths
Number of Pixels in Spectrum: 2048
>>>>>Begin Spectral Data<<<<<
342.097	-64.96
342.483	-64.96
342.868	-64.96
343.254	-106.48
343.639	-99.81
344.025	-103.92
344.41	-95.58
344.796	-88.55
345.181	-83.42
345.567	-68.86
345.952	-61.54
346.337	-33.6
346.722	-16.2
347.107	-3.35
347.493	25.61
347.878	38.78
348.263	56.8
348.648	82.62
349.033	100.27
349.418	115.81
349.802	135.13
350.187	159
350.572	165.87
350.957	205.16
351.342	242.81
351.726	260.67
352.111	272.95
352.495	290.52
352.88	296.25
353.264	313.05
353.649	312.76
354.033	335.33
354.418	339.76
354.802	347.7
355.186	359.57
355.57	360.22
355.955	376.77
356.339	373.68
356.723	373.48
357.107	373.36
357.491	441.76
357.875	384.21
358.259	380.96
358.643	385.39
359.026	386.25
359.41	384.5
359.794	387.55
360.178	382.99
360.561	389.75
360.945	382.18
361.329	378.68
361.712	381.41
362.096	382.26
362.479	380.47
362.862	382.67
363.246	374.54
363.629	379.13
364.012	375.35
364.396	372.67
364.779	382.1
365.162	376.12
365.545	376.45
365.928	375.23
366.311	377.83
366.694	380.64
367.077	380.51
367.46	379.05
367.843	369.57
368.226	375.19
368.608	381.82
368.991	373.97
369.374	382.71
369.756	382.71
370.139	376.81
370.521	377.91
370.904	390.19
371.286	385.68
371.669	375.88
372.051	390.56
372.433	384.09
372.816	388.16
373.198	383.65
373.58	392.59
373.962	395.93
374.344	397.07
374.726	393.85
375.108	397.72
375.49	396.54
375.872	399.38
376.254	393.36
376.636	395.28
377.018	404.51
377.399	403.86
377.781	409.67
378.163	410.28
378.544	405.32
378.926	402.64
379.307	408.01
379.689	411.91
380.07	420.12
380.452	433.75
380.833	427
381.214	436.15
381.596	422.16
381.977	430.66
382.358	441.56
382.739	433.3
383.12	433.83
383.501	437.94
383.882	438.22
384.263	442.74
384.644	442.61
385.025	448.23
385.406	444.2
385.787	444.04
386.167	450.95
386.548	460.71
386.929	457.38
387.309	453.11
387.69	461.93
388.07	466.08
388.451	472.42
388.831	475.72
389.211	479.62
389.592	459.9
389.972	475.31
390.352	475.03
390.733	470.02
391.113	473.48
391.493	480.39
391.873	483.12
392.253	494.83
392.633	503.45
393.013	492.39
393.393	489.1
393.772	499.43
394.152	500.44
394.532	501.91
394.912	506.75
395.291	508.62
395.671	511.34
396.05	505.93
396.43	503.33
396.809	510.12
397.189	500.61
397.568	513.05
397.948	517.32
398.327	527.16
398.706	532.16
399.085	534.68
399.465	540.7
399.844	528.06
400.223	518.46
400.602	532.24
400.981	531.35
401.36	533.83
401.739	531.19
402.117	528.5
402.496	532.94
402.875	531.19
403.254	537.65
403.632	542
404.011	550.83
404.39	564.09
404.768	570.27
405.147	575.56
405.525	572.1
405.903	574.05
406.282	566.08
406.66	556.56
407.038	570.68
407.417	563.4
407.795	566.97
408.173	556.73
408.551	555.75
408.929	563.6
409.307	566.73
409.685	580.11
410.063	571.16
410.441	570.19
410.818	575.8
411.196	576.78
411.574	582.27
411.952	579.99
412.329	596.82
412.707	604.67
413.084	610.25
413.462	619.64
413.839	628.46
414.217	603.33
414.594	617.08
414.971	602.15
415.349	609.84
415.726	616.55
416.103	606.54
416.48	607.56
416.857	606.63
417.234	619.35
417.611	617.36
417.988	625.13
418.365	617.85
418.742	622.36
419.119	614.68
419.495	623.06
419.872	618.46
420.249	668.07
420.625	644.89
421.002	656.93
421.379	657.54
421.755	664.25
422.131	683.85
422.508	681.54
422.884	681.98
423.26	691.91
423.637	698.62
424.013	691.74
424.389	676.49
424.765	677.22
425.141	674.3
425.517	671.65
425.893	659.37
426.269	663.93
426.645	663.6
427.021	682.63
427.397	711.59
427.772	711.39
428.148	710.57
428.524	702.56
428.899	687.27
429.275	706.51
429.651	714.92
430.026	719.27
430.401	739.28
430.777	734.4
431.152	731.39
431.527	719.27
431.903	720.41
432.278	709.51
432.653	719.56
433.028	718.79
433.403	731.19
433.778	758.28
434.153	763.07
434.528	756.16
434.903	763.52
435.278	799.96
435.653	838.19
436.027	859.78
436.402	853.44
436.777	820.21
437.151	796.34
437.526	772.79
437.9	782.15
438.275	782.02
438.649	790.77
439.023	783.65
439.398	791.18
439.772	798.09
440.146	792.88
440.52	803.7
440.895	832.05
441.269	853.8
441.643	866.78
442.017	868.69
442.391	873.12
442.765	863.56
443.138	867.51
443.512	858.07
443.886	874.99
444.26	876.94
444.633	877.76
445.007	891.87
445.38	885.28
445.754	891.34
446.127	896.67
446.501	886.09
446.874	889.67
447.248	879.63
447.621	891.26
447.994	891.54
448.367	891.1
448.741	890.97
449.114	888.33
449.487	910.09
449.86	910.05
450.233	902.56
450.606	897.52
450.978	892.07
451.351	915.01
451.724	897.64
452.097	907.93
452.469	896.91
452.842	893.41
453.215	907.12
453.587	893.54
453.96	905.37
454.332	904.64
454.704	914.97
455.077	919.32
455.449	926.07
455.821	929
456.194	936.68
456.566	923.43
456.938	949.25
457.31	958.03
457.682	988.05
458.054	993.82
458.426	1006.39
458.798	1017.41
459.17	1023.06
459.541	1005.25
459.913	990.16
460.285	976.13
460.656	984.96
461.028	968.32
461.399	979.22
461.771	981.54
462.142	1001.91
462.514	990.16
462.885	1018.79
463.256	1041.73
463.628	1069.14
463.999	1083.7
464.37	1108.34
464.741	1119.24
465.112	1109.85
465.483	1117.37
465.854	1109.89
466.225	1097.81
466.596	1102.24
466.967	1110.99
467.338	1098.01
467.708	1106.19
468.079	1112.37
468.45	1124.41
468.82	1136.65
469.191	1114.2
469.561	1109.68
469.932	1086.67
470.302	1090.98
470.673	1101.59
471.043	1117.82
471.413	1125.18
471.783	1145.06
472.154	1173.61
472.524	1175.57
472.894	1216.23
473.264	1250.6
473.634	1254.22
474.004	1246.98
474.374	1245.11
474.743	1256.98
475.113	1288.01
475.483	1299.07
475.853	1320.06
476.222	1335.96
476.592	1355.28
476.961	1337.71
477.331	1346.9
477.7	1380.37
478.07	1393.5
478.439	1427.09
478.808	1433.11
479.178	1438.28
479.547	1451.33
479.916	1468.98
480.285	1517.66
480.654	1530.39
481.023	1542.96
481.392	1549.99
481.761	1566.3
482.13	1595.34
482.499	1603.02
482.867	1630.8
483.236	1672.65
483.605	1723.24
483.973	1754.63
484.342	1827.26
484.71	1861.38
485.079	1957.93
485.447	2351.39
485.816	2771.24
486.184	3069.86
486.552	2882.87
486.921	2517.23
487.289	2216.94
487.657	2075.21
488.025	2022.43
488.393	1984.85
488.761	2002.42
489.129	2027.27
489.497	2048.01
489.865	2112.1
490.233	2148.33
490.6	2166.31
490.968	2139.22
491.336	2145.69
491.703	2133.94
492.071	2162.77
492.438	2174.85
492.806	2214.5
493.173	2252.4
493.541	2271.31
493.908	2270.38
494.275	2240.97
494.642	2229.06
495.01	2226.74
495.377	2218.4
495.744	2241.3
496.111	2304.46
496.478	2349.52
496.845	2362.98
497.211	2358.79
497.578	2348.62
497.945	2354.4
498.312	2406.69
498.678	2457.53
499.045	2509.58
499.412	2510.64
499.778	2523.53
500.145	2487.22
500.511	2467.45
500.878	2501.04
501.244	2553.79
501.61	2580.79
501.976	2580.79
502.343	2605.72
502.709	2601.74
503.075	2610.76
503.441	2610.68
503.807	2624.1
504.173	2596.12
504.539	2587.22
504.905	2618.13
505.27	2632.68
505.636	2667.66
506.002	2693.65
506.367	2707.92
506.733	2701.82
507.099	2670.1
507.464	2677.74
507.829	2686.98
508.195	2719.06
508.56	2727.28
508.926	2725.12
509.291	2716.99
509.656	2725.37
510.021	2746.51
510.386	2772.46
510.751	2794.75
511.116	2820.69
511.481	2853.18
511.846	2858.8
512.211	2863.68
512.576	2863.47
512.941	2867.7
513.305	2885.6
513.67	2875.55
514.035	2884.86
514.399	2891.9
514.764	2908.41
515.128	2912.52
515.493	2935.09
515.857	2930.33
516.221	2951.76
516.585	2950.05
516.95	2963.31
517.314	2961.64
517.678	2976.29
518.042	2969.58
518.406	3006.91
518.77	3006.66
519.134	3033.1
519.498	3079.17
519.862	3078.85
520.225	3060.63
520.589	3069.98
520.953	3048.1
521.316	3093.57
521.68	3089.1
522.043	3110.61
522.407	3102.03
522.77	3110.45
523.134	3143.96
523.497	3144.53
523.86	3161.81
524.223	3161.57
524.587	3190.4
524.95	3200.77
525.313	3217.12
525.676	3245.34
526.039	3276.37
526.402	3283.57
526.765	3311.39
527.127	3335.01
527.49	3352.79
527.853	3356.12
528.215	3335.62
528.578	3381.13
528.941	3389.18
529.303	3447.91
529.666	3441.16
530.028	3458.68
530.39	3457.1
530.753	3473.98
531.115	3477.27
531.477	3492.28
531.839	3522.45
532.201	3536.93
532.564	3567.06
532.926	3610.82
533.287	3673.61
533.649	3710.99
534.011	3742.54
534.373	3776.75
534.735	3807.9
535.097	3802.12
535.458	3816.84
535.82	3829.86
536.181	3822.74
536.543	3826.24
536.904	3821.52
537.266	3891.71
537.627	3923.47
537.988	3954.58
538.35	4013.11
538.711	4056.09
539.072	4089.52
539.433	4107.25
539.794	4146.98
540.155	4151.42
540.516	4177.52
540.877	4253.98
541.238	4297.33
541.599	4421.45
541.959	4513.93
542.32	4649.88
542.681	4742.32
543.041	4774.2
543.402	4791.81
543.762	4820.6
544.123	4818.28
544.483	4826.33
544.844	4831.87
545.204	4800.59
545.564	4828.21
545.924	4864.77
546.284	4897.67
546.644	4827.23
547.004	4724.79
547.364	4681.48
547.724	4684.32
548.084	4683.8
548.444	4727.55
548.804	4747.03
549.164	4723.49
549.523	4708.52
549.883	4678.51
550.242	4677.33
550.602	4700.06
550.961	4678.35
551.321	4655.08
551.68	4666.19
552.04	4708.52
552.399	4742.56
552.758	4772.74
553.117	4754.27
553.476	4789.45
553.835	4801.04
554.194	4815.6
554.553	4778.55
554.912	4732.35
555.271	4774.4
555.63	4782.62
555.989	4801.89
556.347	4843.5
556.706	4858.67
557.065	4838.58
557.423	4843.37
557.782	4869.93
558.14	4865.62
558.499	4909.99
558.857	4863.55
559.215	4846.75
559.573	4896.45
559.932	4935.45
560.29	4980.14
560.648	5052.08
561.006	5060.58
561.364	5055.78
561.722	5062.33
562.08	5067.45
562.438	5047.2
562.795	5059.85
563.153	5084
563.511	5091.69
563.868	5150.09
564.226	5138.58
564.583	5182.38
564.941	5182.46
565.298	5207.63
565.656	5206.58
566.013	5195.76
566.37	5217.6
566.727	5270.83
567.085	5371
567.442	5495.56
567.799	5585.8
568.156	5638.83
568.513	5726.06
568.87	5810.82
569.226	6004.19
569.583	6233.8
569.94	6404.64
570.297	6501.19
570.653	6486.79
571.01	6541.45
571.366	6716.04
571.723	6873.62
572.079	6909.21
572.436	6825.68
572.792	6767.44
573.148	6851.13
573.505	7033.77
573.861	7380.02
574.217	7490.39
574.573	7523.21
574.929	7498.85
575.285	7455.66
575.641	7497.06
575.997	7580.63
576.352	7657.25
576.708	7740.98
577.064	7901.41
577.42	8153.84
577.775	8407.73
578.131	8560.68
578.486	8505.69
578.842	8239.61
579.197	8130.33
579.552	8183.48
579.908	8389.71
580.263	8639.29
580.618	8569.62
580.973	8673.04
581.328	9110.58
581.683	9765.49
582.038	10261.15
582.393	9941.91
582.748	9308.02
583.103	8529.73
583.458	7933.99
583.812	7720.08
584.167	7906.01
584.522	8191.78
584.876	8531.84
585.231	8722.13
585.585	8732.21
585.939	8507.81
586.294	8272.63
586.648	8101.66
587.002	7990.72
587.356	8115.37
587.711	8425.74
588.065	8610.54
588.419	8681.95
588.773	8534.97
589.127	8198.41
589.48	7940.05
589.834	7584.74
590.188	7427.07
590.542	7363.26
590.895	7234.91
591.249	7290.83
591.603	7220.03
591.956	7180.99
592.309	7264.93
592.663	7466.15
593.016	7873.19
593.369	8124.8
593.723	8136.68
594.076	8023.54
594.429	7902.84
594.782	7996.62
595.135	8213.94
595.488	8312.85
595.841	8230.94
596.194	7989.01
596.547	7760.14
596.899	7578.84
597.252	7542.52
597.605	7578.27
597.957	7563.34
598.31	7572.05
598.662	7597.14
599.015	7646.35
599.367	7697.51
599.719	7698.65
600.072	7663.63
600.424	7678.47
600.776	7787.75
601.128	7897.67
601.48	7933.54
601.832	8013.13
602.184	7953.06
602.536	7981.04
602.888	8073.84
603.24	8286.62
603.592	8400.98
603.943	8381.25
604.295	8186.45
604.646	7902.59
604.998	7748.95
605.349	7737.69
605.701	7718.78
606.052	7746.15
606.404	7704.99
606.755	7636.63
607.106	7681.44
607.457	7660.99
607.808	7673.39
608.159	7619.51
608.51	7559.44
608.861	7531.14
609.212	7477.01
609.563	7549.07
609.914	7691.81
610.265	7818.05
610.615	8038.18
610.966	8206.26
611.316	8442.05
611.667	8588.9
612.017	8559.21
612.368	8328.87
612.718	8207.8
613.068	8052.49
613.419	8037.41
613.769	8007.27
614.119	7969.41
614.469	7977.14
614.819	7834.84
615.169	7743.05
615.519	7706.29
615.869	7669
616.219	7592.46
616.568	7457.81
616.918	7350.29
617.268	7346.59
617.617	7356.27
617.967	7370.87
618.316	7292.17
618.666	7224.38
619.015	7182.33
619.364	7161.75
619.714	7296.32
620.063	7348.95
620.412	7464.52
620.761	7372.41
621.11	7288.92
621.459	7133
621.808	7105.59
622.157	7182.17
622.506	7223.73
622.855	7364.03
623.203	7422.84
623.552	7423.41
623.901	7420.68
624.249	7339.23
624.598	7314.38
624.946	7242.92
625.295	7143.17
625.643	7046.5
625.991	7036.33
626.34	6979.11
626.688	6979.15
627.036	7011.24
627.384	7018.16
627.732	7038.49
628.08	7055.81
628.428	6988.71
628.776	6964.51
629.124	6945.89
629.471	7002.62
629.819	7048.74
630.167	7039.14
630.514	7039.55
630.862	6941.01
631.209	6926.78
631.557	6879.89
631.904	6866.02
632.251	6867.85
632.599	6819.62
632.946	6789.68
633.293	6795.62
633.64	6774.11
633.987	6762.48
634.334	6742.63
634.681	6702.98
635.028	6746.13
635.375	6709
635.722	6770.37
636.068	6829.25
636.415	6838.73
636.762	6900.22
637.108	6968.42
637.455	7586.2
637.801	8470.23
638.147	9224.09
638.494	9335.72
638.84	8423.79
639.186	7532.07
639.532	7054.39
639.878	6867.28
640.225	6824.46
640.571	6777.73
640.916	6799.81
641.262	6776.59
641.608	6732.59
641.954	6720.31
642.3	6701.44
642.645	6646.25
642.991	6681.1
643.337	6722.83
643.682	6747.11
644.028	6768.82
644.373	6757.15
644.718	6776.06
645.064	6719.37
645.409	6729.29
645.754	6728.64
646.099	6741.01
646.444	6737.1
646.789	6747.92
647.134	6738.93
647.479	6756.87
647.824	6762.07
648.169	6751.7
648.513	6820.92
648.858	6849.95
649.203	6883.59
649.547	6918.93
649.892	6886.19
650.236	6905.51
650.581	6824.29
650.925	6852.6
651.269	6791.19
651.613	6859.31
651.958	6864.72
652.302	6911.4
652.646	6869.92
652.99	6858.49
653.334	6892.04
653.678	6877
654.022	6882.12
654.365	6862.28
654.709	6893.39
655.053	6919.05
655.396	7423.24
655.74	12165.74
656.083	20426.26
656.427	27747.89
656.77	31329.64
657.114	26693.01
657.457	19673.34
657.8	13585.32
658.143	9645.28
658.486	7923.05
658.83	7305.76
659.173	7070.13
659.516	6980.13
659.858	6898.31
660.201	6804.32
660.544	6796.6
660.887	6750.68
661.229	6770.29
661.572	6747.55
661.915	6749.14
662.257	6734.3
662.6	6787.77
662.942	6769.88
663.284	6743.49
663.627	6719.74
663.969	6713.15
664.311	6708.27
664.653	6713.39
664.995	6730.84
665.337	6744.42
665.679	6731.29
666.021	6733.89
666.363	6691.47
666.705	6725.15
667.046	6692.37
667.388	6636.45
667.73	6645.44
668.071	6685.66
668.413	6696.84
668.754	6665
669.096	6662.68
669.437	6698.87
669.778	6681.1
670.119	6687.77
670.461	6677.56
670.802	6691.23
671.143	6670.69
671.484	6688.26
671.825	6686.92
672.165	6713.84
672.506	6754.79
672.847	6780.66
673.188	6798.1
673.528	6724.54
673.869	6679.35
674.21	6676.79
674.55	6618.15
674.89	6633.68
675.231	6617.54
675.571	6593.18
675.911	6622.13
676.252	6617.34
676.592	6654.02
676.932	6620.22
677.272	6536.45
677.612	6619.94
677.952	6603.55
678.292	6603.59
678.631	6632.18
678.971	6618.39
679.311	6623.39
679.651	6622.87
679.99	6651.46
680.33	6650.03
680.669	6630.96
681.009	6600.62
681.348	6608.47
681.687	6627.42
682.026	6623.39
682.366	6582.36
682.705	6614.33
683.044	6583.3
683.383	6549.95
683.722	6564.22
684.061	6508.96
684.4	6588.22
684.738	6635.07
685.077	6676.34
685.416	6723.27
685.754	6791.15
686.093	6797.17
686.431	6812.87
686.77	6725.35
687.108	6678.26
687.447	6587.16
687.785	6645.23
688.123	6631.16
688.461	6660.81
688.799	6578.25
689.137	6560.73
689.475	6559.55
689.813	6499.6
690.151	6544.09
690.489	6524.82
690.827	6531.61
691.164	6531.97
691.502	6539.86
691.84	6538.2
692.177	6550.19
692.515	6563.69
692.852	6552.51
693.189	6565.89
693.527	6561.62
693.864	6561.54
694.201	6572.64
694.538	6547.43
694.875	6489.44
695.212	6433.72
695.549	6427.46
695.886	6459.3
696.223	6463.69
696.56	6438.44
696.897	6417.13
697.233	6422.17
697.57	6498.34
697.906	6592.41
698.243	6582.28
698.579	6515.79
698.916	6492.93
699.252	6457.47
699.588	6436.73
699.924	6466.17
700.261	6410.3
700.597	6393.46
700.933	6406.03
701.269	6336.69
701.605	6358
701.941	6310.21
702.276	6338.93
702.612	6311.39
702.948	6388.25
703.283	6397.41
703.619	6389.84
703.954	6368.98
704.29	6383.33
704.625	6364.87
704.961	6333.88
705.296	6339.86
705.631	6289.8
705.966	6247.02
706.301	6237.22
706.637	6277.68
706.972	6388.17
707.306	6442.59
707.641	6529.13
707.976	6539.54
708.311	6496.23
708.646	6496.27
708.98	6414.69
709.315	6397.36
709.649	6355.19
709.984	6353.44
710.318	6259.38
710.653	6305.86
710.987	6313.55
711.321	6308.14
711.655	6272.92
711.989	6257.31
712.324	6244.41
712.658	6251
712.992	6262.75
713.325	6244.13
713.659	6259.09
713.993	6258.28
714.327	6270.44
714.66	6278.86
714.994	6251.16
715.328	6239.17
715.661	6262.39
715.994	6243.64
716.328	6216.72
716.661	6180.16
716.994	6157.95
717.328	6086.34
717.661	6086.05
717.994	6094.76
718.327	6087.27
718.66	6075.72
718.993	6087.64
719.325	6086.87
719.658	6074.02
719.991	6044.41
720.324	6042.34
720.656	5973.16
720.989	5941.03
721.321	5952.87
721.654	5904.43
721.986	5922.53
722.318	5881.01
722.651	5874.34
722.983	5823.1
723.315	5836.92
723.647	5819.88
723.979	5815
724.311	5806.75
724.643	5812.89
724.975	5791.91
725.307	5805.49
725.638	5868.32
725.97	5871.61
726.302	5968.44
726.633	5927.08
726.965	5974.1
727.296	5918.83
727.628	5857.91
727.959	5828.02
728.29	5838.02
728.621	5804.84
728.952	5819.8
729.284	5812.52
729.615	5814.07
729.945	5813.05
730.276	5804.72
730.607	5798.57
730.938	5823.26
731.269	5828.71
731.599	5909.43
731.93	5914.88
732.261	5865.51
732.591	5851.56
732.922	5840.1
733.252	5787.03
733.582	5727.61
733.912	5732.16
734.243	5746.93
734.573	5802.72
734.903	5881.82
735.233	5852.58
735.563	5838.06
735.893	5845.46
736.223	5800.61
736.552	5806.99
736.882	5756.65
737.212	5757.18
737.541	5738.96
737.871	5735.91
738.2	5669.54
738.53	5621.91
738.859	5568.4
739.188	5500.12
739.518	5540.95
739.847	5581.78
740.176	5589.18
740.505	5621.43
740.834	5614.19
741.163	5575.88
741.492	5542.21
741.821	5485.07
742.15	5405.81
742.478	5428.17
742.807	5403.16
743.136	5408.33
743.464	5372.79
743.793	5321.22
744.121	5320.73
744.449	5273.23
744.778	5297.18
745.106	5293.16
745.434	5302.47
745.762	5232.32
746.09	5215.2
746.418	5214.1
746.746	5199.42
747.074	5207.06
747.402	5201.41
747.73	5204.79
748.057	5261.97
748.385	5253.59
748.712	5230.04
749.04	5211.13
749.367	5213.94
749.695	5159.85
750.022	5194.25
750.349	5209.95
750.677	5222.23
751.004	5283.36
751.331	5232.64
751.658	5221.83
751.985	5147.53
752.312	5092.5
752.639	5049.19
752.966	5050.17
753.292	5022.84
753.619	5037.64
753.946	5081.81
754.272	5073.72
754.599	5111.05
754.925	5108.45
755.251	5060.78
755.578	5024.39
755.904	5006.09
756.23	4959.03
756.556	4992.34
756.882	5066.64
757.208	5039.19
757.534	5062.65
757.86	5093.4
758.186	5122.8
758.512	5127.07
758.838	5094.46
759.163	5097.3
759.489	5032.56
759.814	4992.99
760.14	5000.27
760.465	5022.68
760.791	4970.58
761.116	4922.6
761.441	4885.55
761.766	4929.31
762.092	4872.78
762.417	4812.71
762.742	4730.2
763.066	4675.54
763.391	4695.34
763.716	4720.31
764.041	4761.19
764.366	4775.34
764.69	4728.33
765.015	4723.08
765.339	4761.31
765.664	4763.75
765.988	4784.65
766.312	4701.32
766.637	4614.25
766.961	4564.68
767.285	4512.18
767.609	4470.41
767.933	4376.23
768.257	4416.28
768.581	4417.42
768.905	4503.43
769.229	4568.34
769.552	4597.21
769.876	4627.84
770.2	4611.41
770.523	4582.04
770.847	4514.58
771.17	4487.61
771.493	4529.46
771.817	4505.06
772.14	4448.21
772.463	4376.06
772.786	4335.07
773.109	4273.62
773.432	4307.58
773.755	4275.33
774.078	4263.09
774.401	4215.43
774.724	4173.13
775.046	4188.38
775.369	4150.4
775.692	4119.53
776.014	4090.78
776.336	4045.84
776.659	4039.91
776.981	4018.35
777.303	4025.51
777.626	3996.8
777.948	3985.98
778.27	4004.57
778.592	3999.24
778.914	4019.94
779.236	4003.14
779.557	4044.74
779.879	4062.48
780.201	4082.36
780.523	4105.75
780.844	4081.71
781.166	4084.48
781.487	4056.7
781.809	4081.14
782.13	4113.19
782.451	4101.31
782.772	4119.9
783.094	4089.56
783.415	4103.75
783.736	4085.49
784.057	4095.13
784.378	4098.18
784.698	4073.94
785.019	4076.3
785.34	3996.39
785.661	4031.65
785.981	4034.54
786.302	4049.34
786.622	4069.43
786.943	4045.8
787.263	4017.01
787.583	4008.71
787.903	4047.96
788.224	4032.63
788.544	4074.43
788.864	4032.63
789.184	4077.44
789.504	4080.49
789.824	4100.66
790.143	4108.31
790.463	4056.05
790.783	4054.02
791.102	4029.33
791.422	4054.55
791.741	4035.15
792.061	4031.28
792.38	4048.28
792.699	4014.81
793.019	4006.96
793.338	3975.04
793.657	3969.22
793.976	4011.36
794.295	4037.14
794.614	4080.49
794.933	4121.81
795.252	4135.43
795.57	4115.34
795.889	4090.41
796.208	4075.16
796.526	3989.4
796.845	3965.65
797.163	3927.34
797.482	3892.36
797.8	3910.91
798.118	3930.39
798.436	3946.37
798.754	3916.4
799.073	3892.89
799.391	3888.17
799.708	3876.06
800.026	3873.53
800.344	3920.67
800.662	3851.86
800.98	3862.07
801.297	3860.15
801.615	3869.87
801.932	3897.69
802.25	3865.85
802.567	3833.23
802.884	3814.65
803.202	3773.9
803.519	3742.79
803.836	3771.13
804.153	3746.69
804.47	3761.29
804.787	3705.9
805.104	3696.83
805.421	3719
805.737	3712.94
806.054	3714.61
806.371	3726.52
806.687	3743.15
807.004	3736
807.32	3736.44
807.637	3697
807.953	3684.27
808.269	3662.88
808.585	3647.3
808.902	3639.61
809.218	3627.74
809.534	3614.44
809.85	3567.96
810.165	3562.96
810.481	3562.18
810.797	3518.42
811.113	3504.23
811.428	3489.51
811.744	3495.98
812.059	3500.04
812.375	3475.24
812.69	3457.63
813.006	3434.53
813.321	3421.92
813.636	3431.36
813.951	3440.67
814.266	3436.68
814.581	3461.53
814.896	3440.83
815.211	3420.46
815.526	3395.2
815.841	3342.33
816.155	3340.95
816.47	3334.28
816.784	3347.86
817.099	3339.69
817.413	3306.02
817.728	3314.19
818.042	3279.71
818.356	3288.94
818.67	3288.16
818.985	3277.06
819.299	3244.94
819.613	3234.2
819.926	3231.19
820.24	3204.35
820.554	3212.36
820.868	3221.51
821.182	3227.04
821.495	3229.44
821.809	3199.92
822.122	3177.75
822.436	3151.64
822.749	3135.82
823.062	3130.58
823.376	3139.4
823.689	3112.64
824.002	3094.79
824.315	3082.83
824.628	3076.12
824.941	3094.06
825.254	3078.65
825.566	3052.05
825.879	3072.5
826.192	3050.5
826.504	3036.96
826.817	3020.57
827.129	3029.52
827.442	3015.16
827.754	3035.7
828.066	3025.53
828.379	2985.76
828.691	2980.35
829.003	2962.34
829.315	2975.47
829.627	2954.37
829.939	2952.25
830.251	2931.71
830.562	2917.11
830.874	2909.47
831.186	2873.23
831.497	2865.87
831.809	2865.63
832.12	2866.97
832.432	2826.99
832.743	2826.67
833.054	2816.01
833.365	2807.43
833.676	2800.03
833.988	2817.15
834.299	2796.33
834.61	2802.02
834.92	2793.08
835.231	2799.3
835.542	2813.7
835.853	2760.38
836.163	2775.71
836.474	2767.25
836.784	2749.73
837.095	2726.38
837.405	2708.16
837.715	2692.47
838.026	2700.68
838.336	2681.73
838.646	2673.68
838.956	2646.11
839.266	2630
839.576	2609.18
839.886	2602.31
840.195	2619.63
840.505	2617.43
840.815	2597.87
841.124	2582.7
841.434	2563.02
841.743	2555.09
842.053	2565.22
842.362	2549.76
842.671	2532.24
842.981	2524.02
843.29	2499.78
843.599	2498.16
843.908	2465.34
844.217	2452
844.526	2464.08
844.835	2466.52
845.143	2470.18
845.452	2451.63
845.761	2443.01
846.069	2417.88
846.378	2431.46
846.686	2411.25
846.995	2401.65
847.303	2387.42
847.611	2385.71
847.919	2367.94
848.227	2375.91
848.535	2341.18
848.843	2323.53
849.151	2280.83
849.459	2318.97
849.767	2312.59
850.075	2305.84
850.382	2315.23
850.69	2302.83
850.998	2267.37
851.305	2244.31
851.612	2254.68
851.92	2258.66
852.227	2270.26
852.534	2256.83
852.841	2275.62
853.148	2266.92
853.455	2286.48
853.762	2280.54
854.069	2292.99
854.376	2290.59
854.683	2260.62
854.99	2256.71
855.296	2246.06
855.603	2214.38
855.909	2195.26
856.216	2169.32
856.522	2156.51
856.828	2153.5
857.135	2149.31
857.441	2139.96
857.747	2113.52
858.053	2102.7
858.359	2074.56
858.665	2077.25
858.971	2084.57
859.276	2086.64
859.582	2057.69
859.888	2034.22
860.193	2031.58
860.499	2008.56
860.804	1993.19
861.11	1983.35
861.415	1993.39
861.72	1990.3
862.026	1989.93
862.331	1965.86
862.636	1949.43
862.941	1935.03
863.246	1932.43
863.551	1930.07
863.855	1933.53
864.16	1935.11
864.465	1917.79
864.769	1915.55
865.074	1882.86
865.378	1867
865.683	1860.81
865.987	1853.45
866.291	1861.02
866.596	1840.32
866.9	1819.17
867.204	1823.64
867.508	1817.18
867.812	1801.36
868.116	1816.2
868.42	1809.21
868.723	1806.16
869.027	1782.77
869.331	1774.56
869.634	1757.84
869.938	1747.19
870.241	1744.02
870.544	1734.13
870.848	1740.93
871.151	1719.94
871.454	1719.53
871.757	1696.23
872.06	1689.97
872.363	1667.97
872.666	1654.26
872.969	1636.61
873.272	1649.1
873.574	1657.84
873.877	1652.56
874.18	1643.85
874.482	1631.77
874.785	1629.54
875.087	1610.55
875.389	1590.78
875.692	1595.99
875.994	1588.02
876.296	1593.87
876.598	1579.68
876.9	1577.97
877.202	1548.69
877.504	1532.95
877.805	1532.71
878.107	1531.85
878.409	1503.55
878.71	1528.36
879.012	1533.93
879.313	1516.2
879.615	1520.26
879.916	1512.7
880.217	1495.7
880.518	1491.06
880.82	1484.84
881.121	1496.31
881.422	1487.65
881.723	1479.07
882.023	1472.85
882.324	1451.74
882.625	1441.86
882.926	1421.85
883.226	1438.32
883.527	1429.21
883.827	1428.8
884.128	1439.95
884.428	1437.75
884.728	1419.98
885.028	1416.85
885.328	1406.6
885.629	1395.13
885.929	1400.01
886.228	1398.71
886.528	1398.67
886.828	1383.13
887.128	1379.47
887.427	1360.48
887.727	1355.6
888.027	1342.14
888.326	1348
888.625	1350.56
888.925	1337.3
889.224	1340.8
889.523	1330.59
889.822	1325.06
890.121	1314.12
890.42	1311.52
890.719	1310.09
891.018	1297
891.317	1289.72
891.616	1295.13
891.914	1292.28
892.213	1293.38
892.512	1288.38
892.81	1286.83
893.108	1273.05
893.407	1281.02
893.705	1268.98
894.003	1276.54
894.301	1276.05
894.599	1265.36
894.897	1266.62
895.195	1263.98
895.493	1251.33
895.791	1261.9
896.089	1261.5
896.386	1254.34
896.684	1270
896.981	1253.04
897.279	1248.36
897.576	1264.91
897.874	1247.79
898.171	1256.17
898.468	1252.35
898.765	1248.44
899.062	1255.03
899.359	1256.17
899.656	1258.53
899.953	1264.75
900.25	1246.69
900.547	1251.04
900.843	1236.81
901.14	1229.45
901.436	1231.69
901.733	1226.93
902.029	1243.6
902.325	1242.75
902.622	1224.49
902.918	1233.23
903.214	1246.94
903.51	1230.39
903.806	1209.44
904.102	1230.1
904.398	1231.73
904.694	1235.35
904.989	1240.02
905.285	1244.62
905.581	1233.07
905.876	1237.62
906.171	1220.87
906.467	1228.23
906.762	1221.4
907.057	1218.92
907.353	1221.15
907.648	1213.3
907.943	1231.52
908.238	1208.47
908.533	1207.2
908.827	1207.12
909.122	1178.57
909.417	1179.35
909.711	1183.9
910.006	1173.41
910.301	1185.45
910.595	1181.18
910.889	1190.41
911.184	1187.16
911.478	1183.05
911.772	1189.51
912.066	1181.67
912.36	1172.6
912.654	1174.67
912.948	1175.2
913.242	1174.55
913.536	1167.68
913.829	1164.67
914.123	1148.68
914.416	1134.73
914.71	1141.32
915.003	1135.95
915.297	1136.77
915.59	1139.49
915.883	1136.81
916.176	1143.8
916.469	1134.69
916.762	1143.76
917.055	1136
917.348	1118.79
917.641	1128.8
917.934	1119.61
918.226	1110.58
918.519	1112
918.811	1110.86
919.104	1112.73
919.396	1100.13
919.689	1082.68
919.981	1086.02
920.273	1067.27
920.565	1053.56
920.857	1047.14
921.149	1036.24
921.441	1048.97
921.733	1044.7
922.025	1034
922.316	1027.41
922.608	1029.37
922.9	1010.45
923.191	1009.93
923.483	1014.36
923.774	995.86
924.065	996.55
924.357	999.19
924.648	986.54
924.939	987.97
925.23	984.55
925.521	960.07
925.812	962.71
926.102	949.74
926.393	948.68
926.684	949.86
926.975	944.09
927.265	944
927.556	936.16
927.846	934.28
928.136	928.22
928.427	923.47
928.717	917.49
929.007	910.62
929.297	889.79
929.587	892.68
929.877	892.32
930.167	893.86
930.457	889.63
930.746	875.8
931.036	882.56
931.325	864.58
931.615	857.06
931.904	854.41
932.194	846.36
932.483	831.92
932.772	834.93
933.062	830.95
933.351	835.54
933.64	829.52
933.929	812.69
934.218	805.12
934.506	794.67
934.795	796.22
935.084	789.26
935.372	778.93
935.661	767.51
935.949	757.42
936.238	750.51
936.526	740.75
936.815	722.98
937.103	725.7
937.391	710.98
937.679	695.04
937.967	685.81
938.255	680.72
938.543	668.12
938.831	656.89
939.118	646.36
939.406	636.03
939.693	636.6
939.981	611.79
940.268	617.73
940.556	607.28
940.843	589.34
941.13	586.41
941.418	583.85
941.705	566.97
941.992	560.67
942.279	569.09
942.566	561.36
942.852	556.04
943.139	539.73
943.426	545.22
943.712	535.54
943.999	528.02
944.285	531.19
944.572	529.68
944.858	525.78
945.144	529.48
945.431	532.49
945.717	520.61
946.003	529.64
946.289	522.53
946.575	520.41
946.861	524.52
947.146	515.94
947.432	526.59
947.718	515.69
948.003	523.26
948.289	516.22
948.574	509.06
948.86	511.71
949.145	509.84
949.43	519.27
949.715	521.67
950	511.46
950.285	515.69
950.57	529.97
950.855	520.9
951.14	525.66
951.425	524.56
951.709	523.7
951.994	523.7
952.278	526.59
952.563	529.64
952.847	531.27
953.132	529.93
953.416	527.57
953.7	524.07
953.984	535.58
954.268	535.21
954.552	528.18
954.836	537.86
955.12	519.92
955.404	537.69
955.687	536.96
955.971	531.59
956.254	529.44
956.538	521.31
956.821	528.06
957.105	525.53
957.388	535.58
957.671	534.52
957.954	543.14
958.237	542.37
958.52	535.38
958.803	534.64
959.086	528.3
959.369	530.01
959.652	537.61
959.934	526.14
960.217	530.21
960.499	533.83
960.782	535.82
961.064	530.5
961.346	538.55
961.629	521.63
961.911	529.85
962.193	529.07
962.475	520.86
962.757	514.11
963.039	518.99
963.32	519.27
963.602	529.97
963.884	525.09
964.165	518.99
964.447	523.14
964.728	519.64
965.01	525.25
965.291	524.4
965.572	517.08
965.853	517.85
966.134	508.09
966.415	524.68
966.696	514.92
966.977	507.15
967.258	515.25
967.539	516.99
967.819	514.35
968.1	515.77
968.38	518.01
968.661	513.21
968.941	506.22
969.222	503.57
969.502	503.53
969.782	504.88
970.062	502.35
970.342	503.7
970.622	503.17
970.902	502.27
971.182	503
971.462	496.86
971.741	491.25
972.021	504.47
972.3	488.65
972.58	492.31
972.859	496.42
973.138	489.46
973.418	492.35
973.697	486.21
973.976	493.29
974.255	488.08
974.534	484.34
974.813	483.97
975.092	479.38
975.37	481.65
975.649	481.78
975.928	479.3
976.206	481.78
976.485	475.84
976.763	475.92
977.041	472.59
977.32	466.04
977.598	477.91
977.876	474.74
978.154	479.74
978.432	476.41
978.71	456.32
978.988	456.97
979.265	467.71
979.543	461.32
979.821	459.61
980.098	469.01
980.376	461
980.653	456.4
980.93	460.91
981.208	449.24
981.485	454.94
981.762	450.62
982.039	458.27
982.316	454.81
982.593	450.06
982.87	450.01
983.146	451.76
983.423	449.28
983.7	450.58
983.976	441.64
984.253	446.19
984.529	441.39
984.805	438.47
985.082	451.36
985.358	444.2
985.634	434.64
985.91	445.87
986.186	431.59
986.462	437.37
986.738	430.9
987.013	423.34
987.289	432.04
987.565	431.76
987.84	435.46
988.116	433.3
988.391	424.48
988.666	428.83
988.942	434.15
989.217	424.39
989.492	428.54
989.767	423.62
990.042	418.46
990.317	419.96
990.592	415.08
990.866	421.18
991.141	421.38
991.416	412.6
991.69	416.3
991.964	416.67
992.239	415.73
992.513	417.4
992.787	416.38
993.062	406.99
993.336	403.98
993.61	404.79
993.884	396.21
994.158	405.61
994.431	410.57
994.705	409.43
994.979	408.53
995.252	408.66
995.526	394.95
995.799	400.4
996.073	395.8
996.346	399.59
996.619	396.29
996.892	396.98
997.165	394.63
997.438	401.05
997.711	403.61
997.984	395.64
998.257	392.02
998.53	390.8
998.802	394.22
999.075	399.91
999.347	389.87
999.62	389.18
999.892	396.5
1000.165	387.26
1000.437	388.24
1000.709	389.58
1000.981	390.11
1001.253	386.9
1001.525	386.78
1001.797	381.33
1002.068	389.05
1002.34	388.81
1002.612	383.4
1002.883	384.38
1003.155	380.6
1003.426	386.09
1003.698	374.7
1003.969	374.21
1004.24	382.06
1004.511	375.76
1004.782	377.63
1005.053	377.42
1005.324	377.63
1005.595	384.42
1005.866	377.75
1006.136	370.27
1006.407	373.23
1006.678	364.82
1006.948	369.13
1007.218	372.83
1007.489	367.22
1007.759	371.57
1008.029	369.33
1008.299	374.66
1008.569	377.06
1008.839	369.57
1009.109	366.2
1009.379	373.84
1009.649	370.43
1009.918	374.05
1010.188	367.54
1010.458	379.54
1010.727	368.23
1010.996	365.63
1011.266	365.63
1011.535	369.98
1011.804	363.35
1012.073	366.81
1012.342	363.64
1012.611	360.1
1012.88	361.16
1013.149	357.17
1013.417	361.44
1013.686	358.23
1013.955	364.9
1014.223	353.39
1014.492	363.15
1014.76	364.17
1015.028	358.72
1015.296	361.44
1015.565	361.2
1015.833	358.84
1016.101	359
1016.368	353.51
1016.636	354.77
1016.904	357.37
1017.172	361.07
1017.439	358.27
1017.707	364.65
1017.974	356.32
1018.242	350.42
1018.509	354
1018.776	356.24
1019.044	355.34
1019.311	352.49
1019.578	355.79
1019.845	360.67
1020.112	351.4
1020.378	351.4
1020.645	351.4
