Data from 190524_Kr_41K_dark_FLMS138901_12-34-07-442.txt Node
Date: Thu May 30 12:34:07 EDT 2019
User: pSAM
Spectrometer: FLMS13890
Trigger mode: 0
Integration Time (sec): 4.000000E-3
Scans to average: 1000
Electric dark correction enabled: true
Nonlinearity correction enabled: false
Boxcar width: 0
XAxis mode: Wavelengths
Number of Pixels in Spectrum: 2048
>>>>>Begin Spectral Data<<<<<
342.097	-56.59
342.483	-56.59
342.868	-56.59
343.254	-98.51
343.639	-101.27
344.025	-99.1
344.41	-96.55
344.796	-86.2
345.181	-77.95
345.567	-66.01
345.952	-51.15
346.337	-34.89
346.722	-18.73
347.107	-1.86
347.493	17.13
347.878	36.8
348.263	58.95
348.648	75.93
349.033	97
349.418	113.03
349.802	133.61
350.187	151.16
350.572	171.14
350.957	185.59
351.342	201.79
351.726	217.61
352.111	228.64
352.495	245.37
352.88	257.8
353.264	268.48
353.649	279.52
354.033	288.94
354.418	297.17
354.802	305.96
355.186	313.53
355.57	317.89
355.955	323.43
356.339	326.75
356.723	331.5
357.107	334.87
357.491	335.61
357.875	339.04
358.259	339.89
358.643	341.16
359.026	340.9
359.41	341.41
359.794	340.67
360.178	341.12
360.561	340.62
360.945	336.94
361.329	337.52
361.712	334.59
362.096	332.38
362.479	330.55
362.862	331.41
363.246	329.53
363.629	326.27
364.012	324.42
364.396	324.45
364.779	321.61
365.162	321.45
365.545	319.8
365.928	317.32
366.311	317.92
366.694	315.98
367.077	314.46
367.46	312.6
367.843	311.51
368.226	312
368.608	311.01
368.991	311.16
369.374	310.22
369.756	311.8
370.139	309.56
370.521	310.62
370.904	311.15
371.286	309.31
371.669	309.76
372.051	309.37
372.433	310.05
372.816	309.92
373.198	312.6
373.58	310.98
373.962	313.51
374.344	312.95
374.726	314
375.108	313.42
375.49	315.11
375.872	315.87
376.254	315.73
376.636	316.5
377.018	317.14
377.399	316.83
377.781	318.02
378.163	318.54
378.544	319.28
378.926	319.42
379.307	320.78
379.689	319.73
380.07	319.99
380.452	321.02
380.833	320.81
381.214	324
381.596	324.13
381.977	322.66
382.358	324.42
382.739	324.4
383.12	322.95
383.501	321.51
383.882	323.99
384.263	325.43
384.644	326.02
385.025	326.24
385.406	327.48
385.787	328.05
386.167	325.43
386.548	327.51
386.929	327.01
387.309	327.66
387.69	327.06
388.07	327.4
388.451	328.31
388.831	328.32
389.211	329.02
389.592	332.2
389.972	330.32
390.352	331.12
390.733	331.17
391.113	332.9
391.493	332.37
391.873	330.66
392.253	332.49
392.633	332.75
393.013	332.16
393.393	333.1
393.772	334.2
394.152	335
394.532	333.72
394.912	333.83
395.291	334.34
395.671	333.77
396.05	336.74
396.43	335.05
396.809	336.91
397.189	337.18
397.568	335.93
397.948	336.7
398.327	337.44
398.706	336.31
399.085	337.49
399.465	338.37
399.844	338.36
400.223	337.65
400.602	337.09
400.981	340.33
401.36	337.93
401.739	336.94
402.117	340.29
402.496	340.68
402.875	340.42
403.254	339.18
403.632	340.26
404.011	341.04
404.39	341.83
404.768	342.27
405.147	343.36
405.525	344.95
405.903	342.43
406.282	343.62
406.66	341.28
407.038	343.47
407.417	343.1
407.795	342.76
408.173	346.09
408.551	342.58
408.929	345.38
409.307	345.51
409.685	347.15
410.063	345.55
410.441	346.7
410.818	346.2
411.196	345.94
411.574	346.43
411.952	345.06
412.329	347.75
412.707	347.01
413.084	346.05
413.462	348.18
413.839	346.58
414.217	349.11
414.594	348.29
414.971	349.46
415.349	348.05
415.726	349.3
416.103	349.53
416.48	349.36
416.857	351.49
417.234	349.61
417.611	352.6
417.988	349.88
418.365	351.65
418.742	350.44
419.119	353.17
419.495	350.19
419.872	350.64
420.249	357.02
420.625	351.62
421.002	351.41
421.379	352.73
421.755	353.43
422.131	351.88
422.508	353.11
422.884	353.36
423.26	354.21
423.637	352.28
424.013	355.15
424.389	355.09
424.765	353.51
425.141	353.38
425.517	354.76
425.893	355.67
426.269	353.45
426.645	355.06
427.021	355.14
427.397	357.18
427.772	357.54
428.148	357.75
428.524	356.92
428.899	359.45
429.275	356.63
429.651	357.34
430.026	356.55
430.401	356.93
430.777	358.1
431.152	356
431.527	357.39
431.903	358.06
432.278	358.52
432.653	360.15
433.028	358.76
433.403	359.12
433.778	359.44
434.153	358.74
434.528	358.44
434.903	360.15
435.278	363.01
435.653	363.29
436.027	366.1
436.402	364.25
436.777	361.64
437.151	362.61
437.526	359.22
437.9	360.67
438.275	361.69
438.649	361.01
439.023	361.73
439.398	360.93
439.772	360.14
440.146	360.83
440.52	360.09
440.895	361.47
441.269	362.24
441.643	362.67
442.017	360.75
442.391	362.19
442.765	363.74
443.138	362.88
443.512	362.34
443.886	362.61
444.26	361.79
444.633	363.58
445.007	363.13
445.38	362.63
445.754	363.29
446.127	363.24
446.501	363.25
446.874	363.42
447.248	365.31
447.621	364.24
447.994	363.47
448.367	363.7
448.741	364.25
449.114	363.97
449.487	364.15
449.86	363.54
450.233	364.43
450.606	366.05
450.978	365.67
451.351	366.98
451.724	366.51
452.097	365.97
452.469	364.67
452.842	365.38
453.215	366.47
453.587	364.31
453.96	366.75
454.332	366
454.704	365.22
455.077	365.04
455.449	369.32
455.821	367.12
456.194	364.3
456.566	365.26
456.938	365.74
457.31	365.63
457.682	367.01
458.054	367.21
458.426	365.41
458.798	367.31
459.17	367.23
459.541	369.06
459.913	367.2
460.285	365.9
460.656	367.21
461.028	365.67
461.399	366.12
461.771	367.35
462.142	367.3
462.514	366.84
462.885	367.75
463.256	366.75
463.628	365.67
463.999	365.75
464.37	369.14
464.741	366.82
465.112	366.08
465.483	366.22
465.854	369
466.225	367.04
466.596	368.1
466.967	367.91
467.338	370.25
467.708	370.17
468.079	368.5
468.45	369.47
468.82	367.62
469.191	367.91
469.561	368.81
469.932	369.28
470.302	368.06
470.673	367.58
471.043	368.07
471.413	368.2
471.783	369.46
472.154	368.9
472.524	368.69
472.894	369.16
473.264	367.83
473.634	369.95
474.004	370.65
474.374	369.5
474.743	369.12
475.113	369.49
475.483	367.72
475.853	367.84
476.222	367.97
476.592	367.43
476.961	368.56
477.331	369.89
477.7	368.69
478.07	370.59
478.439	369.88
478.808	369.02
479.178	370.35
479.547	369.91
479.916	369
480.285	370.13
480.654	367.57
481.023	369.51
481.392	369.51
481.761	369.99
482.13	371.44
482.499	371.05
482.867	368.88
483.236	369.65
483.605	369.79
483.973	369.25
484.342	368.07
484.71	370.47
485.079	371.08
485.447	371.25
485.816	369.45
486.184	372.14
486.552	374.65
486.921	371.85
487.289	373.29
487.657	371.63
488.025	373.12
488.393	370.07
488.761	372.58
489.129	372.28
489.497	371.62
489.865	373.04
490.233	371.7
490.6	371.04
490.968	371.61
491.336	371.09
491.703	372.96
492.071	372.69
492.438	371.35
492.806	373.52
493.173	372.1
493.541	370.11
493.908	372.68
494.275	371.07
494.642	372.35
495.01	369.86
495.377	370.49
495.744	370.65
496.111	371.09
496.478	370.69
496.845	371.95
497.211	371.14
497.578	369.81
497.945	373.15
498.312	370.54
498.678	369.32
499.045	367.75
499.412	369.88
499.778	369.99
500.145	368.81
500.511	371.13
500.878	371.28
501.244	371.79
501.61	371.32
501.976	369.91
502.343	371.73
502.709	369.28
503.075	371.98
503.441	368.98
503.807	369.31
504.173	369.09
504.539	370.37
504.905	369.06
505.27	369.15
505.636	371.82
506.002	369.06
506.367	369.41
506.733	371.01
507.099	371.48
507.464	368
507.829	369.49
508.195	370.19
508.56	370.18
508.926	370.48
509.291	369.49
509.656	369.26
510.021	368.18
510.386	369.54
510.751	369.13
511.116	371.12
511.481	368.91
511.846	369.51
512.211	369.24
512.576	370.87
512.941	369.67
513.305	369.07
513.67	370.94
514.035	370.44
514.399	370.47
514.764	370.02
515.128	369.92
515.493	368.94
515.857	368.23
516.221	368.85
516.585	367.86
516.95	368.82
517.314	368.12
517.678	368.6
518.042	368.95
518.406	368.91
518.77	369.85
519.134	370.36
519.498	366.38
519.862	369.82
520.225	370.23
520.589	369.84
520.953	371.62
521.316	369.74
521.68	369
522.043	370.15
522.407	368.92
522.77	369.14
523.134	369.22
523.497	367.03
523.86	367.35
524.223	369.1
524.587	369.11
524.95	368.58
525.313	367.69
525.676	368.25
526.039	368.96
526.402	367.85
526.765	367.7
527.127	367.89
527.49	369.3
527.853	369.94
528.215	367.44
528.578	368.6
528.941	369.57
529.303	368.01
529.666	369.12
530.028	369.46
530.39	369.44
530.753	368.8
531.115	368.95
531.477	369.17
531.839	367.72
532.201	367.74
532.564	367.18
532.926	369.39
533.287	366.57
533.649	367.17
534.011	367.39
534.373	369.68
534.735	368.51
535.097	369.04
535.458	366.71
535.82	367.85
536.181	368.5
536.543	367.82
536.904	366.69
537.266	368.16
537.627	368.52
537.988	367.68
538.35	370.18
538.711	369.71
539.072	369.56
539.433	370.89
539.794	371.28
540.155	371.03
540.516	372.97
540.877	373.55
541.238	375.25
541.599	377.85
541.959	380.26
542.32	385.31
542.681	386.79
543.041	387.03
543.402	387.46
543.762	387.09
544.123	387.74
544.483	387.02
544.844	386.73
545.204	384.32
545.564	386.84
545.924	387.89
546.284	389.22
546.644	385.15
547.004	379.16
547.364	376.22
547.724	372.21
548.084	374.66
548.444	372.07
548.804	372.85
549.164	371.15
549.523	372.5
549.883	371.58
550.242	372.43
550.602	370.76
550.961	369.74
551.321	370.51
551.68	370.69
552.04	367.88
552.399	370.96
552.758	370.15
553.117	371.09
553.476	370.99
553.835	370.32
554.194	368.17
554.553	368.42
554.912	364.96
555.271	367.63
555.63	366.76
555.989	367.89
556.347	365.69
556.706	366.79
557.065	366.95
557.423	368.49
557.782	369.35
558.14	369.01
558.499	367.96
558.857	366.29
559.215	366.09
559.573	365.6
559.932	365.69
560.29	367.47
560.648	366.1
561.006	366.71
561.364	367.39
561.722	365.47
562.08	365.68
562.438	365.8
562.795	366.34
563.153	368.16
563.511	365.59
563.868	364.58
564.226	365.71
564.583	364.79
564.941	364.9
565.298	364.3
565.656	366.8
566.013	365.44
566.37	365.64
566.727	366.56
567.085	364.9
567.442	366.53
567.799	365.37
568.156	364.32
568.513	365.14
568.87	364.85
569.226	366.66
569.583	365.34
569.94	364.78
570.297	364.35
570.653	365.47
571.01	365.41
571.366	365.31
571.723	364.04
572.079	364.36
572.436	364.1
572.792	366.41
573.148	364.98
573.505	365.96
573.861	365.53
574.217	364.7
574.573	365.12
574.929	364.47
575.285	363.69
575.641	363.55
575.997	365.83
576.352	368.86
576.708	366.88
577.064	365.42
577.42	365.96
577.775	368.08
578.131	365.35
578.486	365.44
578.842	367.71
579.197	366.96
579.552	367.4
579.908	366.41
580.263	366.7
580.618	367.95
580.973	367.16
581.328	367.87
581.683	366.38
582.038	366.02
582.393	367.12
582.748	368.98
583.103	367.4
583.458	369.9
583.812	369.4
584.167	368.78
584.522	368.47
584.876	367.75
585.231	369.3
585.585	367.32
585.939	367.26
586.294	367.73
586.648	369.09
587.002	369.89
587.356	369.35
587.711	368.55
588.065	369.44
588.419	368.96
588.773	369.39
589.127	367.39
589.48	367.21
589.834	365.52
590.188	366.8
590.542	367.32
590.895	365.76
591.249	365.76
591.603	366.21
591.956	365.75
592.309	367.19
592.663	366.62
593.016	366.5
593.369	364.54
593.723	366.36
594.076	365.43
594.429	365.71
594.782	364.46
595.135	365.69
595.488	365.28
595.841	363.57
596.194	365.6
596.547	363.65
596.899	365
597.252	365.12
597.605	365.4
597.957	363.7
598.31	365.44
598.662	363.7
599.015	365.37
599.367	363.9
599.719	365.9
600.072	367.03
600.424	366.27
600.776	363.8
601.128	365.5
601.48	364.41
601.832	363.2
602.184	363.29
602.536	363.32
602.888	363.68
603.24	362.25
603.592	365.16
603.943	363.25
604.295	363.35
604.646	361.67
604.998	363.89
605.349	363.54
605.701	364.76
606.052	361.77
606.404	364.4
606.755	362.85
607.106	364.69
607.457	363.2
607.808	364.45
608.159	363.13
608.51	364.49
608.861	363.61
609.212	367.58
609.563	364
609.914	366.54
610.265	369.98
610.615	376.2
610.966	381.07
611.316	388.99
611.667	390.77
612.017	388.86
612.368	383.17
612.718	377.52
613.068	375.34
613.419	370.66
613.769	371.03
614.119	369.98
614.469	369.48
614.819	370.39
615.169	369.96
615.519	370.1
615.869	367.96
616.219	368.26
616.568	366.7
616.918	364.67
617.268	367.04
617.617	364.57
617.967	363.96
618.316	364.29
618.666	364.8
619.015	365.56
619.364	364.96
619.714	363.81
620.063	364.32
620.412	364.19
620.761	363.18
621.11	365.81
621.459	364.7
621.808	363.68
622.157	363.7
622.506	367.08
622.855	366.15
623.203	365
623.552	363.05
623.901	363.7
624.249	361.87
624.598	364.29
624.946	365.02
625.295	363.56
625.643	363.58
625.991	362.68
626.34	362.55
626.688	364.48
627.036	365.21
627.384	363.51
627.732	364.7
628.08	363.06
628.428	362.51
628.776	363.43
629.124	363.74
629.471	362.59
629.819	363.81
630.167	363.77
630.514	364.03
630.862	361.19
631.209	364.87
631.557	363.85
631.904	363.02
632.251	362.91
632.599	360.24
632.946	362.57
633.293	359.96
633.64	360.61
633.987	360.42
634.334	359.93
634.681	361.04
635.028	361.33
635.375	359.75
635.722	360.38
636.068	360.3
636.415	361.42
636.762	361.36
637.108	360
637.455	359.46
637.801	361.82
638.147	361.04
638.494	362.43
638.84	362.58
639.186	359.64
639.532	360.97
639.878	360.01
640.225	360.39
640.571	362.46
640.916	360.85
641.262	361.96
641.608	361.62
641.954	359.75
642.3	361.33
642.645	360.84
642.991	360.19
643.337	361.7
643.682	362.27
644.028	362.06
644.373	360.45
644.718	359.85
645.064	359.87
645.409	360.32
645.754	360.55
646.099	360.52
646.444	362.19
646.789	359.77
647.134	359.26
647.479	360.96
647.824	359.87
648.169	359.53
648.513	360.76
648.858	361.26
649.203	363.08
649.547	361.11
649.892	359.87
650.236	360.37
650.581	361.13
650.925	359.44
651.269	360.62
651.613	360.09
651.958	362.24
652.302	360.41
652.646	361.99
652.99	360.53
653.334	360.98
653.678	360.63
654.022	360.84
654.365	358.91
654.709	360.96
655.053	358.62
655.396	361.03
655.74	360.29
656.083	359.76
656.427	360.17
656.77	358.71
657.114	358.45
657.457	360.81
657.8	358.8
658.143	359
658.486	359.32
658.83	359.29
659.173	359.1
659.516	359.18
659.858	359.22
660.201	357.78
660.544	360.1
660.887	357.9
661.229	360.82
661.572	359.79
661.915	359.8
662.257	359.54
662.6	360.42
662.942	359.74
663.284	359.91
663.627	360.14
663.969	361.23
664.311	361.12
664.653	358.39
664.995	360.18
665.337	360.35
665.679	357.82
666.021	358.73
666.363	359.67
666.705	359.17
667.046	360.07
667.388	358.26
667.73	358.42
668.071	358.19
668.413	361.11
668.754	360.12
669.096	359.94
669.437	359.2
669.778	359.62
670.119	358.41
670.461	359.82
670.802	358.77
671.143	359.58
671.484	357.93
671.825	359.3
672.165	360.95
672.506	358.71
672.847	359.77
673.188	360.23
673.528	359.02
673.869	359.93
674.21	359.65
674.55	359.47
674.89	359.75
675.231	357.65
675.571	358.01
675.911	358.44
676.252	359.56
676.592	357.84
676.932	358.63
677.272	360.23
677.612	358.72
677.952	357.82
678.292	359.65
678.631	358.25
678.971	358.92
679.311	358.68
679.651	361.3
679.99	359.54
680.33	358.32
680.669	358.83
681.009	359.17
681.348	358.33
681.687	358.54
682.026	357.68
682.366	356.65
682.705	357.9
683.044	358.42
683.383	356.9
683.722	357.59
684.061	358.89
684.4	359.17
684.738	357.77
685.077	358.54
685.416	358
685.754	359.84
686.093	359.09
686.431	359.03
686.77	357.22
687.108	358.96
687.447	358.08
687.785	357.9
688.123	357.8
688.461	358.36
688.799	357.2
689.137	356.75
689.475	359.15
689.813	358.33
690.151	358.27
690.489	358.38
690.827	360.02
691.164	358.99
691.502	358.36
691.84	358.1
692.177	357.41
692.515	356.95
692.852	357.89
693.189	358.92
693.527	359.16
693.864	356.79
694.201	358.91
694.538	356.26
694.875	359.59
695.212	357.95
695.549	360.82
695.886	357.72
696.223	358.34
696.56	358.5
696.897	357.69
697.233	359
697.57	357.31
697.906	357.97
698.243	359.33
698.579	354.81
698.916	357.56
699.252	356.01
699.588	358.37
699.924	358.06
700.261	357.96
700.597	357.43
700.933	360.04
701.269	357.72
701.605	357.29
701.941	357.23
702.276	357.84
702.612	359.27
702.948	358.8
703.283	357.56
703.619	358.39
703.954	358.22
704.29	357.72
704.625	354.41
704.961	358.91
705.296	358.82
705.631	356.46
705.966	357.8
706.301	358.18
706.637	359.26
706.972	358.81
707.306	358.39
707.641	356.88
707.976	358.32
708.311	359.64
708.646	359.34
708.98	357.42
709.315	358.55
709.649	360.07
709.984	357.13
710.318	358.2
710.653	360.11
710.987	358.76
711.321	356.69
711.655	357.14
711.989	356.98
712.324	357.06
712.658	357.78
712.992	358.46
713.325	357.79
713.659	358.02
713.993	355.96
714.327	356.37
714.66	358.28
714.994	357.4
715.328	358.25
715.661	358.35
715.994	356.77
716.328	358.19
716.661	359.16
716.994	356.38
717.328	358.15
717.661	358.17
717.994	358.7
718.327	358.46
718.66	356.66
718.993	358.03
719.325	356.91
719.658	358.39
719.991	357.21
720.324	358.05
720.656	354.61
720.989	358.15
721.321	356.48
721.654	357.56
721.986	357.79
722.318	355.48
722.651	358.51
722.983	355.76
723.315	355.62
723.647	356.74
723.979	356.77
724.311	357.63
724.643	356.5
724.975	355.97
725.307	358.65
725.638	356.39
725.97	356.73
726.302	357.58
726.633	355.59
726.965	358.25
727.296	358.98
727.628	357.34
727.959	356.51
728.29	357.45
728.621	355.06
728.952	353.88
729.284	357.24
729.615	355.19
729.945	356.28
730.276	354.84
730.607	355.93
730.938	356.28
731.269	354.56
731.599	356.51
731.93	357.72
732.261	356.89
732.591	357.11
732.922	356.85
733.252	356.29
733.582	357.14
733.912	356.37
734.243	357.4
734.573	356.54
734.903	357.75
735.233	356.81
735.563	356.05
735.893	356.68
736.223	355.91
736.552	356.23
736.882	358.16
737.212	356.55
737.541	355.48
737.871	358.81
738.2	355.28
738.53	355.47
738.859	355.13
739.188	354.68
739.518	356.37
739.847	355.95
740.176	355.3
740.505	355.78
740.834	356.25
741.163	355.61
741.492	355.64
741.821	356.1
742.15	356.46
742.478	356.4
742.807	355.58
743.136	355.54
743.464	356.68
743.793	354.84
744.121	356.18
744.449	357.18
744.778	354.97
745.106	354.89
745.434	356.72
745.762	356.26
746.09	357.7
746.418	356.19
746.746	355.63
747.074	355.85
747.402	357.05
747.73	356.58
748.057	356.42
748.385	356.18
748.712	353.8
749.04	355.62
749.367	354.05
749.695	356.83
750.022	355.8
750.349	354.76
750.677	355.1
751.004	358.35
751.331	356.06
751.658	355.26
751.985	356.5
752.312	355.39
752.639	354.09
752.966	354.9
753.292	355.42
753.619	355.5
753.946	355.83
754.272	356.29
754.599	354.74
754.925	355.74
755.251	357.45
755.578	355.02
755.904	356.8
756.23	355.84
756.556	355.64
756.882	355.32
757.208	355.04
757.534	354.3
757.86	356.3
758.186	355.17
758.512	356.18
758.838	356.38
759.163	358.28
759.489	358.24
759.814	356.09
760.14	355.58
760.465	356.3
760.791	353.49
761.116	355.24
761.441	356.37
761.766	356.14
762.092	354.71
762.417	354.66
762.742	356.28
763.066	353.34
763.391	355.32
763.716	354.57
764.041	354.46
764.366	356.18
764.69	355.23
765.015	356.55
765.339	356.4
765.664	356.18
765.988	355.48
766.312	352.09
766.637	352.9
766.961	356.03
767.285	356.04
767.609	355.2
767.933	354.02
768.257	355.74
768.581	355.11
768.905	354.21
769.229	356.49
769.552	354.14
769.876	353.21
770.2	356.23
770.523	355.21
770.847	354.13
771.17	354.77
771.493	353.46
771.817	356.27
772.14	353.34
772.463	355.22
772.786	355.9
773.109	352.21
773.432	354.63
773.755	356.42
774.078	354.82
774.401	356.23
774.724	356.7
775.046	356.12
775.369	354.14
775.692	352.97
776.014	355.03
776.336	354.8
776.659	355.36
776.981	356.49
777.303	354.57
777.626	355.19
777.948	352.71
778.27	354.76
778.592	352.93
778.914	354.09
779.236	353.81
779.557	352.6
779.879	353.46
780.201	356.97
780.523	357.27
780.844	356.04
781.166	354.64
781.487	355.21
781.809	353.5
782.13	353.62
782.451	353.9
782.772	354.57
783.094	352.98
783.415	353.99
783.736	354.85
784.057	354.82
784.378	353.62
784.698	353.06
785.019	355.89
785.34	353.68
785.661	352.96
785.981	354.86
786.302	354
786.622	354.46
786.943	354.71
787.263	354.24
787.583	354.47
787.903	354.37
788.224	353.94
788.544	353.73
788.864	353.84
789.184	352.34
789.504	354.18
789.824	354.94
790.143	354.74
790.463	353.37
790.783	353.61
791.102	353.66
791.422	352.94
791.741	354.23
792.061	352.38
792.38	354
792.699	352.3
793.019	353.63
793.338	353.35
793.657	354.38
793.976	353.3
794.295	354.37
794.614	354.49
794.933	354.02
795.252	354.35
795.57	354.1
795.889	353.07
796.208	354.54
796.526	352.72
796.845	354.52
797.163	354.54
797.482	353
797.8	355.26
798.118	353.62
798.436	353.73
798.754	352.77
799.073	354.62
799.391	353.79
799.708	353.77
800.026	352.59
800.344	353.21
800.662	354.92
800.98	354.72
801.297	354.18
801.615	353.08
801.932	350.03
802.25	352.7
802.567	351.77
802.884	354.16
803.202	352.35
803.519	353.16
803.836	352.96
804.153	355.14
804.47	353.74
804.787	354.82
805.104	353.12
805.421	353.59
805.737	352.81
806.054	352.62
806.371	351.71
806.687	355.27
807.004	354.21
807.32	353.66
807.637	353.94
807.953	352.39
808.269	352.71
808.585	351.98
808.902	353.51
809.218	352.95
809.534	353.89
809.85	352.59
810.165	353.78
810.481	352.8
810.797	353.01
811.113	353.58
811.428	353.59
811.744	354
812.059	351.54
812.375	352.45
812.69	353.33
813.006	352.77
813.321	353.46
813.636	352.45
813.951	353.02
814.266	353.71
814.581	352.66
814.896	352.85
815.211	351.74
815.526	353.62
815.841	351.98
816.155	352.9
816.47	354.23
816.784	349.6
817.099	353.12
817.413	351.32
817.728	353.44
818.042	353.49
818.356	353.67
818.67	352.99
818.985	352.27
819.299	353.98
819.613	352.56
819.926	351.95
820.24	352.6
820.554	351.6
820.868	353.42
821.182	350.67
821.495	353.31
821.809	352.09
822.122	352.51
822.436	352.41
822.749	352.66
823.062	353.65
823.376	353.08
823.689	352.38
824.002	352.82
824.315	351.39
824.628	352.27
824.941	353.28
825.254	351.95
825.566	351.97
825.879	354.96
826.192	353.11
826.504	352.77
826.817	353.16
827.129	350.03
827.442	351.88
827.754	353.96
828.066	353
828.379	350.19
828.691	351.81
829.003	352.36
829.315	352.07
829.627	352.83
829.939	354.42
830.251	351.64
830.562	353.15
830.874	353.02
831.186	352.18
831.497	351.41
831.809	351.94
832.12	352.25
832.432	352.86
832.743	353.04
833.054	351.85
833.365	352.06
833.676	353.77
833.988	351.89
834.299	354.76
834.61	352.55
834.92	352.84
835.231	352.43
835.542	352.74
835.853	353.69
836.163	352.95
836.474	353.18
836.784	354.43
837.095	352.44
837.405	351.3
837.715	350.44
838.026	352.79
838.336	352.51
838.646	352.53
838.956	353.16
839.266	351.15
839.576	351.59
839.886	351.44
840.195	351
840.505	352.55
840.815	351.96
841.124	349.86
841.434	353.42
841.743	351.66
842.053	352.39
842.362	353.37
842.671	352.49
842.981	352.3
843.29	349.34
843.599	353.28
843.908	353.33
844.217	353.05
844.526	353.85
844.835	353.44
845.143	352.43
845.452	351.86
845.761	352.21
846.069	352
846.378	350.92
846.686	351.69
846.995	352.7
847.303	350.95
847.611	352.82
847.919	351.13
848.227	351.45
848.535	351.76
848.843	352.17
849.151	350.29
849.459	352.05
849.767	351.46
850.075	353.34
850.382	351.36
850.69	349.83
850.998	352.13
851.305	352.67
851.612	350.68
851.92	349.69
852.227	352.55
852.534	351.11
852.841	351.52
853.148	351.17
853.455	350.64
853.762	350.54
854.069	352.46
854.376	350.98
854.683	350.28
854.99	351.25
855.296	352.1
855.603	351.73
855.909	350.49
856.216	351.59
856.522	351.53
856.828	352.52
857.135	351.89
857.441	353.38
857.747	350.33
858.053	350.6
858.359	350.83
858.665	350.12
858.971	353.23
859.276	351.94
859.582	352.31
859.888	351.31
860.193	349.9
860.499	350.22
860.804	350.26
861.11	350.25
861.415	351.03
861.72	350.27
862.026	351.97
862.331	351.55
862.636	350.56
862.941	351.19
863.246	350.23
863.551	351.19
863.855	349.77
864.16	351.59
864.465	351.9
864.769	352.77
865.074	350.16
865.378	351.95
865.683	349.91
865.987	350.22
866.291	351
866.596	349.52
866.9	353.31
867.204	350.4
867.508	350.25
867.812	351.5
868.116	351.48
868.42	350.78
868.723	350.58
869.027	349.25
869.331	350.87
869.634	351.91
869.938	352.26
870.241	351.51
870.544	349.86
870.848	351.59
871.151	351.98
871.454	349.01
871.757	351.1
872.06	350.55
872.363	350.93
872.666	351.46
872.969	351.31
873.272	349.76
873.574	350.62
873.877	349.07
874.18	349.86
874.482	350.93
874.785	350.68
875.087	350.61
875.389	350.81
875.692	350.74
875.994	349.94
876.296	352.33
876.598	349.46
876.9	350.02
877.202	351.46
877.504	349.01
877.805	351.18
878.107	350.57
878.409	351.53
878.71	352
879.012	349.15
879.313	351.18
879.615	350.47
879.916	350.01
880.217	349.42
880.518	350.36
880.82	351.3
881.121	350.87
881.422	350.19
881.723	350.21
882.023	349.36
882.324	349.77
882.625	351.35
882.926	348.79
883.226	350.76
883.527	349.66
883.827	349.88
884.128	349.4
884.428	350.89
884.728	349.53
885.028	350.17
885.328	351.67
885.629	350.79
885.929	351.76
886.228	350.98
886.528	352.18
886.828	349.77
887.128	350.25
887.427	349.55
887.727	349.54
888.027	350.69
888.326	349.98
888.625	346.85
888.925	349.18
889.224	350.74
889.523	351.32
889.822	350.66
890.121	349.76
890.42	350.3
890.719	349.85
891.018	350.4
891.317	350.45
891.616	349.47
891.914	349.15
892.213	350.75
892.512	348.85
892.81	351.1
893.108	350
893.407	350.14
893.705	351.08
894.003	349.74
894.301	350.48
894.599	350.1
894.897	349.8
895.195	349.65
895.493	351.78
895.791	351.2
896.089	349.96
896.386	349.16
896.684	349.3
896.981	350.17
897.279	349.86
897.576	350
897.874	350.95
898.171	349.31
898.468	350.16
898.765	350.07
899.062	348.9
899.359	349.49
899.656	349.32
899.953	349.33
900.25	349.55
900.547	348.13
900.843	347.97
901.14	348.83
901.436	350.09
901.733	348.57
902.029	350.16
902.325	351.18
902.622	351.31
902.918	349.77
903.214	349.05
903.51	347.49
903.806	349.49
904.102	350.91
904.398	351.64
904.694	348.99
904.989	348.88
905.285	348.45
905.581	347.98
905.876	350.17
906.171	351.13
906.467	348.31
906.762	349.17
907.057	350.51
907.353	349.98
907.648	350.36
907.943	348.98
908.238	349.06
908.533	349.51
908.827	350.28
909.122	348.03
909.417	349.66
909.711	349.04
910.006	350.53
910.301	348.76
910.595	348.72
910.889	348.68
911.184	348.23
911.478	348.35
911.772	349.8
912.066	349.34
912.36	349.99
912.654	350.07
912.948	349.07
913.242	349.94
913.536	349.71
913.829	347.94
914.123	347.56
914.416	350.97
914.71	350.43
915.003	350.59
915.297	348.46
915.59	350.36
915.883	347.28
916.176	348.41
916.469	349.33
916.762	348.63
917.055	349.42
917.348	349.21
917.641	350.44
917.934	349.09
918.226	348.69
918.519	350.26
918.811	349.16
919.104	349.53
919.396	348.9
919.689	348.92
919.981	348.12
920.273	350.05
920.565	348.82
920.857	348.62
921.149	349.31
921.441	349.42
921.733	348.06
922.025	347.83
922.316	347.77
922.608	348.2
922.9	347.93
923.191	349.18
923.483	347.43
923.774	348.83
924.065	349.76
924.357	348.11
924.648	348.99
924.939	348.1
925.23	348.42
925.521	349.09
925.812	347.37
926.102	348.54
926.393	348.01
926.684	349.66
926.975	349.02
927.265	348.24
927.556	347.51
927.846	349.08
928.136	350.51
928.427	349.04
928.717	348.44
929.007	348.4
929.297	349.35
929.587	351.08
929.877	349.58
930.167	348.84
930.457	348.42
930.746	349.45
931.036	349.89
931.325	350.1
931.615	348.82
931.904	349.24
932.194	349.06
932.483	348.47
932.772	350.44
933.062	349.78
933.351	349.51
933.64	348.44
933.929	349.25
934.218	348.84
934.506	350.47
934.795	347.32
935.084	347.21
935.372	348.62
935.661	349.25
935.949	349.06
936.238	348.79
936.526	346.77
936.815	347.56
937.103	349.77
937.391	349.31
937.679	348.71
937.967	348.33
938.255	350.01
938.543	349.39
938.831	349.7
939.118	347.31
939.406	349.4
939.693	347.75
939.981	348.69
940.268	348.14
940.556	349.37
940.843	349.47
941.13	349.56
941.418	348.95
941.705	348.63
941.992	347.02
942.279	350.57
942.566	348.8
942.852	347.04
943.139	345.97
943.426	349.98
943.712	347.94
943.999	346.73
944.285	346.96
944.572	347.02
944.858	348.94
945.144	346.49
945.431	346.68
945.717	345.66
946.003	346.32
946.289	347.26
946.575	347.28
946.861	348.79
947.146	347.88
947.432	347.39
947.718	349.99
948.003	347.44
948.289	347.66
948.574	347.7
948.86	348.84
949.145	346.94
949.43	347.83
949.715	347.56
950	346.92
950.285	350.63
950.57	349.24
950.855	349.24
951.14	347.23
951.425	346.27
951.709	347.88
951.994	348.03
952.278	347.99
952.563	347.83
952.847	348.5
953.132	346.76
953.416	346.7
953.7	347.9
953.984	347.09
954.268	346.68
954.552	347.77
954.836	349.03
955.12	347.43
955.404	347.97
955.687	347.32
955.971	348.14
956.254	348.57
956.538	347.49
956.821	347.86
957.105	346.51
957.388	346.63
957.671	345.7
957.954	347.6
958.237	348.24
958.52	346.02
958.803	347.63
959.086	348.14
959.369	345.67
959.652	347.67
959.934	348.91
960.217	344.57
960.499	348.12
960.782	347.93
961.064	346.48
961.346	347.06
961.629	347.3
961.911	346.88
962.193	345.27
962.475	347.51
962.757	348.83
963.039	348.1
963.32	348.43
963.602	348.18
963.884	346.49
964.165	349.2
964.447	345.43
964.728	349.06
965.01	347.78
965.291	346.82
965.572	345.7
965.853	346.15
966.134	346.39
966.415	347.21
966.696	348.09
966.977	347.85
967.258	344.9
967.539	346.76
967.819	346.88
968.1	346.73
968.38	348.06
968.661	346.05
968.941	346.42
969.222	347.45
969.502	346.85
969.782	347.79
970.062	344.78
970.342	346.92
970.622	346.25
970.902	346.56
971.182	346.53
971.462	348.4
971.741	346.49
972.021	349.48
972.3	348.03
972.58	346.33
972.859	346.7
973.138	346.87
973.418	345.19
973.697	347.04
973.976	348.13
974.255	345.35
974.534	346.95
974.813	347.49
975.092	346.3
975.37	347.37
975.649	347.94
975.928	347.74
976.206	344.5
976.485	348.47
976.763	349.15
977.041	347.07
977.32	346.1
977.598	346.12
977.876	344.52
978.154	346.81
978.432	346.19
978.71	346.36
978.988	347.26
979.265	347.22
979.543	348.23
979.821	346.44
980.098	345.09
980.376	346.63
980.653	346.21
980.93	346.81
981.208	347.65
981.485	344.97
981.762	347.45
982.039	347.18
982.316	347.55
982.593	346.91
982.87	345.86
983.146	347.72
983.423	345.65
983.7	347.14
983.976	347.23
984.253	345.74
984.529	346.33
984.805	345.73
985.082	344.95
985.358	346.51
985.634	346.13
985.91	344.35
986.186	346.39
986.462	345.53
986.738	346.21
987.013	346.73
987.289	347.3
987.565	348.77
987.84	346.71
988.116	347.18
988.391	347.88
988.666	346.47
988.942	347.02
989.217	347.35
989.492	344.51
989.767	346.34
990.042	345.42
990.317	347.09
990.592	346.54
990.866	346.58
991.141	346.75
991.416	347.4
991.69	344.89
991.964	345.55
992.239	347.18
992.513	347.84
992.787	347.77
993.062	346.44
993.336	348.33
993.61	346.2
993.884	345.49
994.158	344.63
994.431	344.82
994.705	345.95
994.979	346.29
995.252	344.33
995.526	347.2
995.799	347.24
996.073	343.33
996.346	346.66
996.619	346.42
996.892	346.52
997.165	345.33
997.438	346.18
997.711	346.81
997.984	345.68
998.257	348.47
998.53	348.47
998.802	345.14
999.075	345.1
999.347	346.08
999.62	345.84
999.892	347.07
1000.165	345.1
1000.437	347.38
1000.709	347.06
1000.981	346.11
1001.253	344.86
1001.525	347.15
1001.797	346.79
1002.068	346.71
1002.34	346.07
1002.612	345.56
1002.883	346.15
1003.155	346.06
1003.426	346.16
1003.698	347.74
1003.969	346.31
1004.24	344.78
1004.511	345.43
1004.782	346.57
1005.053	346.9
1005.324	342.38
1005.595	345.99
1005.866	348.17
1006.136	344.06
1006.407	346.28
1006.678	344.93
1006.948	344.2
1007.218	346.24
1007.489	347
1007.759	345.89
1008.029	346.09
1008.299	347.02
1008.569	345.56
1008.839	347.06
1009.109	344.49
1009.379	346.13
1009.649	344.15
1009.918	345.77
1010.188	345.31
1010.458	344.93
1010.727	344.59
1010.996	344.49
1011.266	343.48
1011.535	346.07
1011.804	346.1
1012.073	345.76
1012.342	346.86
1012.611	343.56
1012.88	346.21
1013.149	344.4
1013.417	347.54
1013.686	345.85
1013.955	346.69
1014.223	344.27
1014.492	345.61
1014.76	344.88
1015.028	346.1
1015.296	346.21
1015.565	346.22
1015.833	347
1016.101	344.92
1016.368	346.39
1016.636	346.74
1016.904	344.41
1017.172	343.97
1017.439	346.47
1017.707	345.59
1017.974	344.87
1018.242	345.23
1018.509	343.75
1018.776	343.18
1019.044	345.41
1019.311	346.98
1019.578	344.96
1019.845	343.6
1020.112	345.6
1020.378	345.6
1020.645	345.6
