Data from dark_FLMS138901_19-38-03-835.txt Node
Date: Wed Aug 14 19:38:03 EDT 2019
User: pSAM
Spectrometer: FLMS13890
Trigger mode: 0
Integration Time (sec): 6.000000E-2
Scans to average: 60
Electric dark correction enabled: true
Nonlinearity correction enabled: false
Boxcar width: 0
XAxis mode: Wavelengths
Number of Pixels in Spectrum: 2048
>>>>>Begin Spectral Data<<<<<
342.097	-67.96
342.483	-67.96
342.868	-67.96
343.254	-103.91
343.639	-98.09
344.025	-107.45
344.41	-99.27
344.796	-95.69
345.181	-81.42
345.567	-67.8
345.952	-52.18
346.337	-33.8
346.722	-14.52
347.107	1.66
347.493	20.98
347.878	37.82
348.263	54.25
348.648	78.45
349.033	100.93
349.418	123.83
349.802	134.2
350.187	149.94
350.572	174.75
350.957	190.85
351.342	210.49
351.726	222.94
352.111	238.84
352.495	241.89
352.88	253.52
353.264	277.96
353.649	286.05
354.033	289.47
354.418	302.4
354.802	313.99
355.186	313.06
355.57	317.69
355.955	322.86
356.339	334.16
356.723	324.32
357.107	331.97
357.491	467.19
357.875	344.09
358.259	340.91
358.643	340.34
359.026	344.13
359.41	328.88
359.794	344.82
360.178	343.11
360.561	332.17
360.945	338.03
361.329	332.5
361.712	331.68
362.096	334.45
362.479	334.61
362.862	324.89
363.246	330.91
363.629	322.17
364.012	324.69
364.396	324.77
364.779	320.91
365.162	313.59
365.545	321.27
365.928	316.35
366.311	318.51
366.694	318.99
367.077	314.81
367.46	308.79
367.843	314.28
368.226	316.72
368.608	305.7
368.991	304.64
369.374	311.31
369.756	308.38
370.139	312.32
370.521	310.78
370.904	316.55
371.286	319.36
371.669	312.37
372.051	311.02
372.433	314.15
372.816	313.99
373.198	306.1
373.58	311.15
373.962	320.95
374.344	310.94
374.726	317
375.108	308.34
375.49	310.21
375.872	311.63
376.254	309.4
376.636	318.06
377.018	317.77
377.399	314.89
377.781	316.19
378.163	317.12
378.544	324.65
378.926	311.23
379.307	319.44
379.689	320.58
380.07	330.67
380.452	327.45
380.833	323.39
381.214	328.43
381.596	325.05
381.977	325.74
382.358	316.19
382.739	324.81
383.12	324.52
383.501	324.61
383.882	322.41
384.263	326.8
384.644	316.64
385.025	321.8
385.406	325.62
385.787	330.91
386.167	316.23
386.548	320.38
386.929	322.25
387.309	326.48
387.69	327.25
388.07	322.9
388.451	319.81
388.831	325.46
389.211	332.21
389.592	327.25
389.972	331.72
390.352	332.9
390.733	327.41
391.113	331.76
391.493	322.98
391.873	333.35
392.253	326.84
392.633	339.08
393.013	326.72
393.393	333.67
393.772	335.06
394.152	338.47
394.532	331.72
394.912	332.29
395.291	329.85
395.671	338.76
396.05	335.87
396.43	336.07
396.809	335.83
397.189	330.22
397.568	332.86
397.948	333.02
398.327	332.25
398.706	331.4
399.085	333.96
399.465	335.46
399.844	340.47
400.223	339.41
400.602	337.01
400.981	340.95
401.36	344.82
401.739	332.9
402.117	338.56
402.496	330.34
402.875	337.05
403.254	340.14
403.632	343.15
404.011	339.69
404.39	338.03
404.768	336.6
405.147	342.42
405.525	341.4
405.903	344.25
406.282	345.88
406.66	342.5
407.038	337.95
407.417	338.64
407.795	349.37
408.173	334.9
408.551	342.34
408.929	345.92
409.307	345.43
409.685	341.48
410.063	336.52
410.441	346.36
410.818	348.6
411.196	342.83
411.574	345.63
411.952	341.24
412.329	351.08
412.707	341.44
413.084	345.39
413.462	344.74
413.839	359.7
414.217	353.07
414.594	338.31
414.971	337.42
415.349	340.51
415.726	350.15
416.103	348.4
416.48	350.02
416.857	347.75
417.234	353.6
417.611	348.23
417.988	344.09
418.365	352.54
418.742	345.79
419.119	348.4
419.495	347.58
419.872	346.97
420.249	428.84
420.625	360.52
421.002	345.22
421.379	351.37
421.755	353.07
422.131	354.5
422.508	353.93
422.884	360.56
423.26	348.44
423.637	348.23
424.013	355.55
424.389	348.93
424.765	346.08
425.141	348.72
425.517	345.83
425.893	359.5
426.269	349.9
426.645	353.72
427.021	350.55
427.397	360.72
427.772	358.44
428.148	359.86
428.524	349.25
428.899	353.15
429.275	348.23
429.651	362.63
430.026	347.1
430.401	356.33
430.777	354.9
431.152	354.54
431.527	361.82
431.903	351.85
432.278	354.01
432.653	354.05
433.028	350.02
433.403	362.26
433.778	351.04
434.153	353.15
434.528	366.7
434.903	363
435.278	361.29
435.653	355.03
436.027	354.21
436.402	354.66
436.777	354.7
437.151	363.24
437.526	360.23
437.9	365.4
438.275	358.08
438.649	356.37
439.023	358.85
439.398	356.77
439.772	354.9
440.146	358.73
440.52	359.21
440.895	360.68
441.269	361.08
441.643	359.62
442.017	360.07
442.391	363.77
442.765	358.4
443.138	359.74
443.512	354.94
443.886	364.66
444.26	357.38
444.633	368.89
445.007	356.33
445.38	368.45
445.754	358.97
446.127	362.87
446.501	362.71
446.874	361.57
447.248	360.92
447.621	363.97
447.994	356.41
448.367	359.3
448.741	360.8
449.114	359.66
449.487	359.99
449.86	353.97
450.233	369.95
450.606	360.31
450.978	365.36
451.351	399.19
451.724	361
452.097	367.96
452.469	356.25
452.842	368.24
453.215	365.15
453.587	365.11
453.96	371.21
454.332	368.57
454.704	368.32
455.077	365.84
455.449	362.26
455.821	375.73
456.194	367.43
456.566	360.64
456.938	361.78
457.31	365.6
457.682	361.65
458.054	360.96
458.426	371.17
458.798	361.45
459.17	376.99
459.541	360.35
459.913	365.64
460.285	361.94
460.656	360.07
461.028	367.06
461.399	367.1
461.771	360.15
462.142	362.79
462.514	357.79
462.885	375.97
463.256	362.43
463.628	361.9
463.999	364.62
464.37	357.67
464.741	363.65
465.112	364.34
465.483	365.4
465.854	364.34
466.225	364.95
466.596	368.16
466.967	365.97
467.338	367.88
467.708	367.47
468.079	360.11
468.45	367.63
468.82	371.25
469.191	366.45
469.561	373.94
469.932	364.14
470.302	367.27
470.673	364.09
471.043	366.13
471.413	359.7
471.783	363.53
472.154	367.92
472.524	366.7
472.894	365.72
473.264	368.41
473.634	366.17
474.004	357.51
474.374	368
474.743	369.58
475.113	372.02
475.483	366.82
475.853	370.52
476.222	363.48
476.592	368.45
476.961	364.01
477.331	371.37
477.7	366.05
478.07	366.45
478.439	367.47
478.808	363.4
479.178	369.06
479.547	366.17
479.916	361.04
480.285	372.68
480.654	363.32
481.023	365.84
481.392	364.46
481.761	360.84
482.13	369.99
482.499	371.78
482.867	365.11
483.236	362.3
483.605	362.63
483.973	364.5
484.342	373.73
484.71	364.7
485.079	366.9
485.447	377.23
485.816	361.98
486.184	361.29
486.552	370.15
486.921	376.46
487.289	364.38
487.657	368.04
488.025	371.13
488.393	361.41
488.761	372.68
489.129	364.46
489.497	367.63
489.865	365.31
490.233	377.23
490.6	370.97
490.968	360.11
491.336	377.76
491.703	378.25
492.071	368.32
492.438	367.1
492.806	369.95
493.173	371.25
493.541	363.24
493.908	369.38
494.275	366.09
494.642	368.12
495.01	372.76
495.377	363.24
495.744	361.78
496.111	369.79
496.478	374.42
496.845	374.3
497.211	362.02
497.578	367.27
497.945	374.91
498.312	370.72
498.678	363.73
499.045	371.13
499.412	372.88
499.778	368
500.145	373.81
500.511	361.13
500.878	376.99
501.244	365.52
501.61	370.44
501.976	371.78
502.343	370.6
502.709	363.4
503.075	372.39
503.441	365.36
503.807	358.12
504.173	365.4
504.539	359.95
504.905	370.72
505.27	365.88
505.636	366.82
506.002	367.84
506.367	366.33
506.733	371.58
507.099	375.24
507.464	368.65
507.829	373.37
508.195	374.38
508.56	371.17
508.926	364.42
509.291	362.59
509.656	366.94
510.021	367.47
510.386	364.91
510.751	371.25
511.116	367.19
511.481	366.37
511.846	375.03
512.211	376.25
512.576	371.33
512.941	365.44
513.305	368.12
513.67	367.67
514.035	374.67
514.399	370.85
514.764	367.92
515.128	363.24
515.493	362.55
515.857	362.43
516.221	364.18
516.585	366.82
516.95	367.63
517.314	367.14
517.678	372.11
518.042	366.45
518.406	376.86
518.77	361.94
519.134	370.44
519.498	369.34
519.862	363.12
520.225	370.52
520.589	371.13
520.953	373.49
521.316	367.06
521.68	371.62
522.043	366.37
522.407	367.84
522.77	375.36
523.134	367.92
523.497	370.89
523.86	368.73
524.223	363.12
524.587	366.86
524.95	360.72
525.313	364.09
525.676	365.44
526.039	371.58
526.402	369.71
526.765	369.91
527.127	369.26
527.49	366.45
527.853	370.6
528.215	360.72
528.578	362.26
528.941	366.37
529.303	370.85
529.666	362.91
530.028	363.61
530.39	374.26
530.753	369.26
531.115	376.34
531.477	365.97
531.839	365.88
532.201	366.98
532.564	360.76
532.926	364.42
533.287	369.18
533.649	364.75
534.011	355.23
534.373	369.18
534.735	363.97
535.097	363.85
535.458	369.02
535.82	366.53
536.181	365.27
536.543	370.03
536.904	367.31
537.266	377.19
537.627	365.11
537.988	361.94
538.35	367.63
538.711	363.81
539.072	365.72
539.433	373.16
539.794	368.81
540.155	363.48
540.516	365.27
540.877	367.39
541.238	361.04
541.599	364.62
541.959	360.47
542.32	362.59
542.681	370.03
543.041	367.71
543.402	361.61
543.762	369.71
544.123	364.75
544.483	371.5
544.844	380.12
545.204	367.84
545.564	370.11
545.924	375.77
546.284	367.1
546.644	360.23
547.004	359.21
547.364	377.72
547.724	366.78
548.084	358.48
548.444	359.82
548.804	370.11
549.164	370.64
549.523	364.7
549.883	375.03
550.242	367.55
550.602	364.18
550.961	370.72
551.321	365.03
551.68	361.37
552.04	367.59
552.399	366.62
552.758	361.78
553.117	367.88
553.476	363.65
553.835	366.78
554.194	373.41
554.553	363.04
554.912	367.75
555.271	366.45
555.63	360.11
555.989	359.74
556.347	358.77
556.706	361.29
557.065	368.81
557.423	368.2
557.782	368.08
558.14	369.1
558.499	360.92
558.857	365.68
559.215	367.96
559.573	363.85
559.932	366.05
560.29	363.69
560.648	361.78
561.006	367.75
561.364	367.1
561.722	362.96
562.08	368.69
562.438	364.75
562.795	364.54
563.153	362.87
563.511	361.29
563.868	371.25
564.226	367.67
564.583	364.18
564.941	365.8
565.298	367.47
565.656	368.97
566.013	359.3
566.37	364.66
566.727	362.22
567.085	361.61
567.442	369.91
567.799	359.78
568.156	365.88
568.513	365.64
568.87	369.83
569.226	356.73
569.583	360.84
569.94	363.44
570.297	358.85
570.653	359.38
571.01	366.78
571.366	361.9
571.723	361
572.079	369.42
572.436	361.41
572.792	362.35
573.148	359.95
573.505	363.89
573.861	360.96
574.217	369.14
574.573	359.82
574.929	358.81
575.285	365.88
575.641	365.44
575.997	366.37
576.352	361.08
576.708	362.47
577.064	368
577.42	365.6
577.775	358.81
578.131	358.12
578.486	357.14
578.842	356.81
579.197	361.17
579.552	369.75
579.908	362.06
580.263	370.56
580.618	364.26
580.973	360.92
581.328	356.12
581.683	358.93
582.038	365.44
582.393	361.69
582.748	361.65
583.103	373.41
583.458	364.54
583.812	363.89
584.167	365.6
584.522	365.72
584.876	361.61
585.231	366.86
585.585	363.16
585.939	359.62
586.294	363.73
586.648	362.22
587.002	370.11
587.356	359.09
587.711	361.17
588.065	359.21
588.419	369.14
588.773	363.16
589.127	362.55
589.48	361.74
589.834	364.58
590.188	356.53
590.542	366.53
590.895	359.25
591.249	363.89
591.603	358.89
591.956	360.64
592.309	361.08
592.663	361.21
593.016	365.23
593.369	358.89
593.723	361.57
594.076	363.2
594.429	365.56
594.782	363.81
595.135	363.89
595.488	361.53
595.841	364.22
596.194	364.01
596.547	357.75
596.899	364.38
597.252	364.14
597.605	363.93
597.957	367.8
598.31	358.03
598.662	366.86
599.015	359.05
599.367	360.96
599.719	352.67
600.072	365.72
600.424	383.7
600.776	367.67
601.128	365.84
601.48	361.08
601.832	359.25
602.184	358.03
602.536	356.29
602.888	363.77
603.24	355.88
603.592	357.22
603.943	355.31
604.295	365.64
604.646	364.54
604.998	364.01
605.349	357.3
605.701	361.13
606.052	360.96
606.404	357.63
606.755	353.03
607.106	361.37
607.457	369.71
607.808	358.93
608.159	363.28
608.51	368.49
608.861	365.23
609.212	358.77
609.563	357.34
609.914	364.7
610.265	354.13
610.615	361.49
610.966	371.09
611.316	367.84
611.667	361.86
612.017	371.05
612.368	374.3
612.718	361.37
613.068	354.82
613.419	369.02
613.769	360.84
614.119	366.58
614.469	360.43
614.819	354.37
615.169	364.58
615.519	361.65
615.869	363.44
616.219	365.6
616.568	363.28
616.918	366.86
617.268	359.5
617.617	364.34
617.967	359.82
618.316	363.4
618.666	358.48
619.015	363.12
619.364	361.41
619.714	371.09
620.063	362.71
620.412	362.02
620.761	360.35
621.11	364.7
621.459	360.6
621.808	360.35
622.157	360.76
622.506	363.36
622.855	362.14
623.203	363.48
623.552	363.53
623.901	357.83
624.249	361.69
624.598	358.85
624.946	361.45
625.295	364.3
625.643	367.59
625.991	357.38
626.34	362.18
626.688	359.05
627.036	366.21
627.384	356.08
627.732	361.69
628.08	352.38
628.428	357.55
628.776	359.3
629.124	355.88
629.471	362.35
629.819	354.42
630.167	363.81
630.514	355.43
630.862	359.05
631.209	355.11
631.557	357.06
631.904	351.85
632.251	357.75
632.599	352.87
632.946	364.87
633.293	362.71
633.64	354.86
633.987	361.78
634.334	356
634.681	361.65
635.028	354.94
635.375	361.49
635.722	362.35
636.068	349.98
636.415	362.79
636.762	359.91
637.108	354.78
637.455	352.1
637.801	362.87
638.147	362.67
638.494	360.8
638.84	361.94
639.186	358.28
639.532	358.16
639.878	369.54
640.225	353.93
640.571	360.23
640.916	352.02
641.262	356.45
641.608	367.31
641.954	370.36
642.3	357.02
642.645	363.97
642.991	355.96
643.337	357.59
643.682	362.59
644.028	349.9
644.373	363.48
644.718	360.31
645.064	358.32
645.409	359.05
645.754	365.44
646.099	353.64
646.444	361.41
646.789	358.44
647.134	356.2
647.479	350.35
647.824	368.16
648.169	356.04
648.513	360.03
648.858	357.87
649.203	358.52
649.547	361.9
649.892	348.6
650.236	362.67
650.581	352.67
650.925	352.18
651.269	359.66
651.613	367.02
651.958	357.42
652.302	357.95
652.646	353.28
652.99	360.35
653.334	356.08
653.678	356.69
654.022	362.75
654.365	348.84
654.709	357.75
655.053	355.68
655.396	353.11
655.74	362.02
656.083	349.82
656.427	350.43
656.77	358.4
657.114	359.82
657.457	363
657.8	358.44
658.143	355.88
658.486	362.02
658.83	357.63
659.173	360.27
659.516	347.42
659.858	360.8
660.201	357.87
660.544	356.57
660.887	359.01
661.229	360.88
661.572	359.54
661.915	358.85
662.257	361.29
662.6	362.02
662.942	356.53
663.284	351.57
663.627	360.88
663.969	354.7
664.311	352.38
664.653	352.59
664.995	351.32
665.337	358.89
665.679	357.42
666.021	365.92
666.363	356.41
666.705	353.48
667.046	351.24
667.388	362.1
667.73	360.76
668.071	359.95
668.413	361.94
668.754	355.59
669.096	353.6
669.437	353.89
669.778	357.47
670.119	353.44
670.461	357.59
670.802	357.02
671.143	355.92
671.484	346.04
671.825	360.88
672.165	361.94
672.506	355.39
672.847	353.15
673.188	353.2
673.528	354.33
673.869	355.55
674.21	359.13
674.55	352.54
674.89	353.4
675.231	358.97
675.571	352.26
675.911	356.9
676.252	369.22
676.592	349.74
676.932	352.59
677.272	351.45
677.612	358.28
677.952	353.36
678.292	353.28
678.631	363.36
678.971	350.47
679.311	350.59
679.651	349.09
679.99	349.09
680.33	347.05
680.669	352.95
681.009	359.42
681.348	359.95
681.687	353.24
682.026	361.04
682.366	353.03
682.705	362.83
683.044	359.21
683.383	362.59
683.722	353.4
684.061	353.97
684.4	357.22
684.738	360.92
685.077	360.88
685.416	360.92
685.754	356.86
686.093	361.25
686.431	357.1
686.77	354.62
687.108	351.73
687.447	356.16
687.785	362.55
688.123	348.56
688.461	357.22
688.799	358.08
689.137	349.54
689.475	364.05
689.813	356.41
690.151	354.46
690.489	348.4
690.827	364.58
691.164	351.04
691.502	355.8
691.84	356.33
692.177	355.8
692.515	357.3
692.852	361.33
693.189	353.64
693.527	357.26
693.864	354.7
694.201	362.22
694.538	355.84
694.875	354.25
695.212	352.38
695.549	367.06
695.886	357.71
696.223	357.95
696.56	354.13
696.897	350.31
697.233	364.58
697.57	352.38
697.906	351.73
698.243	357.18
698.579	355.59
698.916	355.43
699.252	350.51
699.588	353.36
699.924	354.5
700.261	358.64
700.597	348.48
700.933	359.62
701.269	351.81
701.605	352.95
701.941	350.59
702.276	352.06
702.612	356.25
702.948	362.91
703.283	358.48
703.619	354.09
703.954	357.63
704.29	357.14
704.625	358.64
704.961	364.42
705.296	359.3
705.631	355.03
705.966	348.07
706.301	355.31
706.637	358.2
706.972	354.25
707.306	350.59
707.641	357.38
707.976	352.99
708.311	364.3
708.646	362.67
708.98	358.85
709.315	356.57
709.649	348.27
709.984	349.05
710.318	350.27
710.653	356.33
710.987	358.56
711.321	350.31
711.655	354.66
711.989	357.38
712.324	359.38
712.658	348.64
712.992	354.58
713.325	351.85
713.659	360.64
713.993	352.34
714.327	348.27
714.66	356.73
714.994	347.95
715.328	354.25
715.661	352.95
715.994	346.81
716.328	360.23
716.661	353.56
716.994	352.67
717.328	352.14
717.661	355.8
717.994	355.19
718.327	351.37
718.66	359.05
718.993	357.42
719.325	363.61
719.658	356.53
719.991	356.08
720.324	358.64
720.656	350.27
720.989	349.45
721.321	358.73
721.654	358.6
721.986	358.52
722.318	350.47
722.651	351.16
722.983	358.64
723.315	361.29
723.647	353.76
723.979	368.16
724.311	355.68
724.643	349.45
724.975	353.03
725.307	345.83
725.638	354.5
725.97	357.71
726.302	360.35
726.633	354.17
726.965	352.59
727.296	348.48
727.628	359.99
727.959	362.26
728.29	348.88
728.621	350.15
728.952	360.27
729.284	353.11
729.615	352.71
729.945	353.44
730.276	350.67
730.607	349.9
730.938	354.78
731.269	355.27
731.599	363.73
731.93	354.46
732.261	354.62
732.591	350.47
732.922	348.19
733.252	356.45
733.582	349.94
733.912	349.98
734.243	350.06
734.573	356.16
734.903	356.37
735.233	357.63
735.563	365.03
735.893	348.36
736.223	357.67
736.552	349.74
736.882	353.6
737.212	345.67
737.541	345.1
737.871	354.25
738.2	349.05
738.53	351.08
738.859	355.43
739.188	350.55
739.518	351.04
739.847	355.51
740.176	353.32
740.505	351.16
740.834	351.49
741.163	347.3
741.492	353.52
741.821	358.97
742.15	355.55
742.478	355.92
742.807	352.18
743.136	351.08
743.464	352.38
743.793	349.9
744.121	350.35
744.449	354.17
744.778	349.66
745.106	353.97
745.434	362.63
745.762	353.6
746.09	355.72
746.418	354.25
746.746	352.38
747.074	355.59
747.402	357.71
747.73	354.5
748.057	344.74
748.385	352.59
748.712	365.19
749.04	349.58
749.367	345.96
749.695	361.98
750.022	345.79
750.349	352.5
750.677	362.22
751.004	422.29
751.331	350.31
751.658	348.27
751.985	361.53
752.312	352.63
752.639	355.59
752.966	357.99
753.292	364.66
753.619	350.8
753.946	358.93
754.272	360.92
754.599	360.19
754.925	355.51
755.251	359.46
755.578	366.33
755.904	354.25
756.23	360.11
756.556	351.89
756.882	351
757.208	348.64
757.534	359.21
757.86	347.46
758.186	349.86
758.512	344.53
758.838	347.1
759.163	348.27
759.489	354.33
759.814	356.16
760.14	358.4
760.465	364.46
760.791	354.46
761.116	349.29
761.441	354.05
761.766	350.19
762.092	349.98
762.417	345.67
762.742	352.95
763.066	363.93
763.391	352.1
763.716	353.03
764.041	360.8
764.366	355.51
764.69	355.76
765.015	353.93
765.339	349.82
765.664	353.93
765.988	358.24
766.312	351.65
766.637	356.29
766.961	349.45
767.285	344.41
767.609	348.8
767.933	351.45
768.257	353.48
768.581	350.63
768.905	353.6
769.229	352.95
769.552	353.64
769.876	350.71
770.2	359.38
770.523	362.43
770.847	345.83
771.17	352.79
771.493	356.98
771.817	356.04
772.14	353.6
772.463	348.68
772.786	361.08
773.109	350.96
773.432	356.86
773.755	346.89
774.078	355.03
774.401	353.56
774.724	349.49
775.046	351.08
775.369	360.35
775.692	347.1
776.014	348.72
776.336	355.64
776.659	356.08
776.981	359.46
777.303	358.44
777.626	354.86
777.948	349.74
778.27	350.8
778.592	362.51
778.914	355.64
779.236	355.11
779.557	357.79
779.879	354.21
780.201	349.78
780.523	353.85
780.844	347.26
781.166	348.93
781.487	347.34
781.809	352.75
782.13	352.79
782.451	347.42
782.772	353.68
783.094	349.66
783.415	359.17
783.736	356.29
784.057	351.28
784.378	351.16
784.698	355.76
785.019	348.56
785.34	356.25
785.661	355.68
785.981	346.93
786.302	353.15
786.622	352.99
786.943	352.3
787.263	352.22
787.583	346.12
787.903	353.52
788.224	345.47
788.544	355.84
788.864	350.19
789.184	354.66
789.504	345.18
789.824	352.22
790.143	348.15
790.463	350.35
790.783	352.18
791.102	358.44
791.422	351.98
791.741	345.47
792.061	347.34
792.38	348.56
792.699	348.03
793.019	358.69
793.338	356.49
793.657	349.17
793.976	348.36
794.295	346.28
794.614	357.99
794.933	357.87
795.252	345.75
795.57	359.05
795.889	344.94
796.208	354.37
796.526	361.21
796.845	360.39
797.163	342.01
797.482	346.2
797.8	355.31
798.118	347.58
798.436	341.93
798.754	349.62
799.073	356.37
799.391	353.24
799.708	348.88
800.026	357.59
800.344	359.05
800.662	351.61
800.98	351.85
801.297	349.86
801.615	345.39
801.932	355.35
802.25	356.45
802.567	353.24
802.884	352.99
803.202	344.78
803.519	352.87
803.836	355.43
804.153	349.49
804.47	357.67
804.787	345.96
805.104	357.91
805.421	356.37
805.737	349.17
806.054	346.24
806.371	352.26
806.687	357.38
807.004	359.66
807.32	350.67
807.637	354.58
807.953	355.96
808.269	344.37
808.585	349.05
808.902	357.63
809.218	364.79
809.534	355.23
809.85	351.45
810.165	348.48
810.481	347.58
810.797	355.35
811.113	345.92
811.428	344.86
811.744	352.63
812.059	345.63
812.375	350.23
812.69	347.83
813.006	356.69
813.321	354.74
813.636	347.22
813.951	356.57
814.266	354.5
814.581	358.64
814.896	348.07
815.211	354.5
815.526	350.15
815.841	360.43
816.155	356.49
816.47	348.36
816.784	360.39
817.099	351.32
817.413	350.96
817.728	352.42
818.042	357.34
818.356	339.45
818.67	347.99
818.985	349.05
819.299	348.44
819.613	350.47
819.926	354.94
820.24	363.12
820.554	357.18
820.868	351.32
821.182	342.58
821.495	355.47
821.809	348.48
822.122	350.06
822.436	356.94
822.749	353.97
823.062	359.13
823.376	356
823.689	360.19
824.002	347.01
824.315	354.13
824.628	347.71
824.941	354.46
825.254	346.12
825.566	351.49
825.879	349.33
826.192	347.58
826.504	352.46
826.817	352.22
827.129	348.64
827.442	357.67
827.754	353.68
828.066	350.02
828.379	355.43
828.691	354.94
829.003	352.26
829.315	347.79
829.627	340.91
829.939	359.21
830.251	342.62
830.562	353.68
830.874	352.99
831.186	357.63
831.497	349.62
831.809	350.35
832.12	344.25
832.432	351.49
832.743	357.71
833.054	350.63
833.365	356.9
833.676	348.97
833.988	350.31
834.299	346
834.61	355.76
834.92	356.73
835.231	344.82
835.542	340.51
835.853	346.53
836.163	351.69
836.474	345.39
836.784	351.32
837.095	361.08
837.405	349.09
837.715	351
838.026	362.22
838.336	351.37
838.646	355.47
838.956	351.73
839.266	346.32
839.576	348.48
839.886	349.94
840.195	357.1
840.505	352.95
840.815	353.24
841.124	347.62
841.434	350.1
841.743	349.41
842.053	357.34
842.362	356.77
842.671	353.85
842.981	350.1
843.29	347.95
843.599	355.92
843.908	344.98
844.217	353.85
844.526	340.47
844.835	357.63
845.143	354.13
845.452	346.4
845.761	351.28
846.069	345.67
846.378	345.35
846.686	351.53
846.995	347.99
847.303	359.74
847.611	352.95
847.919	353.36
848.227	353.56
848.535	356.9
848.843	345.96
849.151	357.3
849.459	345.55
849.767	349.01
850.075	357.42
850.382	344.98
850.69	349.01
850.998	354.25
851.305	354.7
851.612	349.05
851.92	355.39
852.227	346.97
852.534	344.94
852.841	351.2
853.148	344.45
853.455	347.62
853.762	349.13
854.069	352.91
854.376	354.09
854.683	353.64
854.99	344.29
855.296	348.07
855.603	346.89
855.909	351.53
856.216	343.03
856.522	356.2
856.828	345.55
857.135	353.48
857.441	350.39
857.747	355.43
858.053	351.81
858.359	347.5
858.665	354.21
858.971	356.81
859.276	349.21
859.582	352.14
859.888	342.01
860.193	341.93
860.499	339.86
860.804	345.59
861.11	355.47
861.415	363.44
861.72	347.3
862.026	345.27
862.331	342.26
862.636	353.89
862.941	354.54
863.246	345.63
863.551	349.62
863.855	354.74
864.16	352.71
864.465	352.3
864.769	354.9
865.074	345.63
865.378	358.12
865.683	346.2
865.987	348.03
866.291	347.18
866.596	351.61
866.9	347.58
867.204	353.4
867.508	350.31
867.812	350.27
868.116	349.09
868.42	346.4
868.723	350.92
869.027	349.86
869.331	351.12
869.634	351.04
869.938	356.29
870.241	359.05
870.544	346.36
870.848	350.88
871.151	343.15
871.454	347.54
871.757	343.56
872.06	348.8
872.363	354.62
872.666	348.4
872.969	348.15
873.272	352.46
873.574	354.25
873.877	350.1
874.18	345.1
874.482	357.38
874.785	351.85
875.087	346.49
875.389	353.48
875.692	357.34
875.994	354.29
876.296	356.12
876.598	356.33
876.9	346.2
877.202	352.3
877.504	344.17
877.805	349.29
878.107	351.08
878.409	358.52
878.71	342.87
879.012	346.81
879.313	345.14
879.615	351.77
879.916	351.16
880.217	351.04
880.518	353.89
880.82	352.71
881.121	356.29
881.422	355.15
881.723	347.22
882.023	342.17
882.324	359.13
882.625	351.85
882.926	345.79
883.226	347.1
883.527	347.5
883.827	347.54
884.128	340.02
884.428	349.9
884.728	352.18
885.028	354.58
885.328	349.66
885.629	341.81
885.929	357.34
886.228	346.53
886.528	348.32
886.828	350.1
887.128	344.7
887.427	351.45
887.727	353.11
888.027	349.94
888.326	340.34
888.625	343.84
888.925	347.62
889.224	350.15
889.523	349.62
889.822	343.07
890.121	339.21
890.42	357.42
890.719	343.31
891.018	357.59
891.317	350.39
891.616	350.8
891.914	347.38
892.213	347.1
892.512	348.19
892.81	351.98
893.108	353.24
893.407	343.56
893.705	345.88
894.003	346.36
894.301	345.59
894.599	345.31
894.897	349.78
895.195	349.33
895.493	343.52
895.791	352.22
896.089	351.93
896.386	337.21
896.684	354.98
896.981	349.9
897.279	352.59
897.576	345.18
897.874	353.28
898.171	352.34
898.468	352.22
898.765	350.51
899.062	343.39
899.359	342.7
899.656	349.54
899.953	344.61
900.25	351.61
900.547	350.92
900.843	352.99
901.14	338.43
901.436	343.88
901.733	351.61
902.029	342.09
902.325	350.88
902.622	342.09
902.918	350.51
903.214	344.94
903.51	349.9
903.806	343.48
904.102	346.93
904.398	341.16
904.694	345.35
904.989	350.19
905.285	353.15
905.581	346.4
905.876	347.95
906.171	348.19
906.467	355.11
906.762	352.06
907.057	353.81
907.353	344.37
907.648	349.98
907.943	343.92
908.238	345.59
908.533	346.73
908.827	361.69
909.122	343.39
909.417	345.63
909.711	340.87
910.006	346.4
910.301	341.16
910.595	349.13
910.889	352.06
911.184	336.64
911.478	354.78
911.772	346.12
912.066	351.61
912.36	344.74
912.654	340.14
912.948	350.96
913.242	347.01
913.536	348.84
913.829	342.74
914.123	338.31
914.416	354.9
914.71	339.25
915.003	346.4
915.297	348.56
915.59	354.37
915.883	349.94
916.176	346.16
916.469	349.82
916.762	356.65
917.055	339.94
917.348	344.82
917.641	341.4
917.934	345.55
918.226	352.83
918.519	351.53
918.811	356.94
919.104	350.35
919.396	352.75
919.689	349.66
919.981	346.89
920.273	351.45
920.565	346.57
920.857	354.42
921.149	346.4
921.441	346.2
921.733	346.73
922.025	349.9
922.316	349.62
922.608	348.88
922.9	345.59
923.191	343.68
923.483	348.32
923.774	345.39
924.065	349.7
924.357	348.68
924.648	345.55
924.939	342.22
925.23	343.96
925.521	346.28
925.812	351.85
926.102	351
926.393	345.88
926.684	336.81
926.975	349.74
927.265	351.65
927.556	347.22
927.846	345.88
928.136	336.44
928.427	348.36
928.717	351.12
929.007	347.1
929.297	346
929.587	349.82
929.877	344.29
930.167	347.1
930.457	348.36
930.746	342.95
931.036	345.75
931.325	346.4
931.615	341.85
931.904	347.38
932.194	343.92
932.483	351.98
932.772	352.5
933.062	351.37
933.351	349.29
933.64	347.3
933.929	354.62
934.218	346.36
934.506	347.62
934.795	342.66
935.084	335.14
935.372	354.86
935.661	352.34
935.949	343.88
936.238	348.56
936.526	344
936.815	340.79
937.103	344.66
937.391	350.02
937.679	348.84
937.967	353.03
938.255	346.81
938.543	349.29
938.831	344.33
939.118	351.04
939.406	344.41
939.693	350.39
939.981	337.86
940.268	352.34
940.556	354.05
940.843	355.19
941.13	342.66
941.418	353.64
941.705	342.42
941.992	340.95
942.279	348.4
942.566	348.8
942.852	340.34
943.139	347.54
943.426	353.32
943.712	348.36
943.999	343.88
944.285	337.95
944.572	349.86
944.858	344.41
945.144	345.02
945.431	338.76
945.717	339.82
946.003	346.93
946.289	342.91
946.575	353.11
946.861	351.61
947.146	352.34
947.432	349.74
947.718	345.92
948.003	351.77
948.289	344.37
948.574	342.87
948.86	350.1
949.145	350.27
949.43	363.77
949.715	341.48
950	339.29
950.285	346.57
950.57	340.71
950.855	342.87
951.14	338.15
951.425	345.27
951.709	345.63
951.994	341.24
952.278	348.72
952.563	345.35
952.847	341.4
953.132	347.66
953.416	348.19
953.7	334.41
953.984	351.93
954.268	343.48
954.552	352.91
954.836	347.01
955.12	355.64
955.404	350.51
955.687	343.56
955.971	344.61
956.254	358.69
956.538	341.56
956.821	346.61
957.105	351.28
957.388	343.44
957.671	346.24
957.954	352.75
958.237	346.97
958.52	343.27
958.803	349.78
959.086	351.04
959.369	347.3
959.652	349.58
959.934	342.74
960.217	350.43
960.499	346.97
960.782	346.2
961.064	343.35
961.346	345.22
961.629	345.71
961.911	347.26
962.193	344.57
962.475	345.14
962.757	351.08
963.039	342.13
963.32	345.59
963.602	346.97
963.884	340.67
964.165	341.69
964.447	346.93
964.728	343.11
965.01	343.35
965.291	341.77
965.572	342.54
965.853	348.8
966.134	342.58
966.415	347.75
966.696	348.76
966.977	344.25
967.258	342.58
967.539	349.54
967.819	346.08
968.1	337.62
968.38	345.51
968.661	345.92
968.941	351.69
969.222	351.2
969.502	344.49
969.782	347.91
970.062	334.85
970.342	350.47
970.622	342.05
970.902	344.78
971.182	344.17
971.462	342.22
971.741	345.75
972.021	353.56
972.3	345.59
972.58	351.93
972.859	343.6
973.138	343.03
973.418	349.13
973.697	346.12
973.976	341
974.255	351.77
974.534	355.96
974.813	342.99
975.092	347.38
975.37	346.16
975.649	354.01
975.928	348.48
976.206	346.97
976.485	349.45
976.763	337.05
977.041	343.96
977.32	346.44
977.598	347.87
977.876	340.14
978.154	339.61
978.432	354.98
978.71	351.77
978.988	348.4
979.265	352.22
979.543	344
979.821	339.41
980.098	354.62
980.376	339.12
980.653	347.71
980.93	346.61
981.208	346.97
981.485	346.12
981.762	347.83
982.039	337.01
982.316	348.6
982.593	352.02
982.87	343.68
983.146	348.03
983.423	342.83
983.7	349.09
983.976	340.3
984.253	344.94
984.529	350.35
984.805	349.98
985.082	342.74
985.358	348.27
985.634	339.78
985.91	350.35
986.186	345.79
986.462	342.5
986.738	345.92
987.013	348.48
987.289	338.56
987.565	346.44
987.84	345.43
988.116	342.13
988.391	344.33
988.666	347.5
988.942	341.36
989.217	351.04
989.492	345.02
989.767	343.19
990.042	339.73
990.317	348.19
990.592	351.08
990.866	343.39
991.141	343.48
991.416	345.14
991.69	347.01
991.964	338.47
992.239	347.58
992.513	338.15
992.787	345.14
993.062	344.37
993.336	346.2
993.61	342.46
993.884	340.75
994.158	346.4
994.431	344.21
994.705	349.54
994.979	348.23
995.252	349.54
995.526	338.72
995.799	341.08
996.073	349.09
996.346	348.6
996.619	347.87
996.892	339.9
997.165	352.02
997.438	345.1
997.711	344.9
997.984	346.85
998.257	346.24
998.53	343.96
998.802	348.19
999.075	350.1
999.347	337.21
999.62	350.55
999.892	346.53
1000.165	338.47
1000.437	341.24
1000.709	342.26
1000.981	345.06
1001.253	339.69
1001.525	345.27
1001.797	352.83
1002.068	342.3
1002.34	350.1
1002.612	357.42
1002.883	351.12
1003.155	342.17
1003.426	348.6
1003.698	346.44
1003.969	350.92
1004.24	345.43
1004.511	341.24
1004.782	343.27
1005.053	344.41
1005.324	340.14
1005.595	339.41
1005.866	343.56
1006.136	347.01
1006.407	352.71
1006.678	337.5
1006.948	343.48
1007.218	345.27
1007.489	349.9
1007.759	348.56
1008.029	337.29
1008.299	340.1
1008.569	350.1
1008.839	350.1
1009.109	349.45
1009.379	337.17
1009.649	339.04
1009.918	342.87
1010.188	350.39
1010.458	348.52
1010.727	349.01
1010.996	346.12
1011.266	344.41
1011.535	345.22
1011.804	343.6
1012.073	346.77
1012.342	346.61
1012.611	348.23
1012.88	354.5
1013.149	351.41
1013.417	348.4
1013.686	346.61
1013.955	344.13
1014.223	355.55
1014.492	349.09
1014.76	345.71
1015.028	338.03
1015.296	338.92
1015.565	344.86
1015.833	340.87
1016.101	343.6
1016.368	349.05
1016.636	334.9
1016.904	343.35
1017.172	344.33
1017.439	339.04
1017.707	345.59
1017.974	339.82
1018.242	343.31
1018.509	339.49
1018.776	343.8
1019.044	343.8
1019.311	342.09
1019.578	339.65
1019.845	340.34
1020.112	350.63
1020.378	350.63
1020.645	350.63
