Data from 190403_Kr_With_Film_38K_FLMS138901_12-18-40-078.txt Node
Date: Wed Apr 03 12:18:40 EDT 2019
User: pSAM
Spectrometer: FLMS13890
Trigger mode: 0
Integration Time (sec): 7.000000E-3
Scans to average: 1000
Electric dark correction enabled: true
Nonlinearity correction enabled: false
Boxcar width: 0
XAxis mode: Wavelengths
Number of Pixels in Spectrum: 2048
>>>>>Begin Spectral Data<<<<<
342.097	-44.44
342.483	-44.44
342.868	-44.44
343.254	-89.53
343.639	-93.47
344.025	-93.71
344.41	-92.06
344.796	-86.38
345.181	-76.78
345.567	-64.98
345.952	-51.81
346.337	-36.38
346.722	-18.35
347.107	-1.15
347.493	16.8
347.878	36.25
348.263	54.98
348.648	75.44
349.033	93.52
349.418	113.54
349.802	131.06
350.187	147.82
350.572	169.73
350.957	247.67
351.342	430.36
351.726	461.04
352.111	477.34
352.495	495.97
352.88	506.35
353.264	521.91
353.649	534.81
354.033	546.8
354.418	563.14
354.802	572.7
355.186	580.8
355.57	591.31
355.955	600.73
356.339	606.14
356.723	612
357.107	618.94
357.491	621.61
357.875	625.91
358.259	628.61
358.643	634.82
359.026	634.49
359.41	638.04
359.794	640.09
360.178	641.91
360.561	641.08
360.945	643.25
361.329	643.91
361.712	647.1
362.096	647.46
362.479	650.9
362.862	651.58
363.246	650.62
363.629	647.5
364.012	648.27
364.396	649.31
364.779	654.1
365.162	651.67
365.545	654.05
365.928	656.27
366.311	659.55
366.694	662.46
367.077	663.82
367.46	666
367.843	665.17
368.226	667.55
368.608	669.2
368.991	667.37
369.374	668.74
369.756	672.97
370.139	670.7
370.521	674.78
370.904	678.25
371.286	676.15
371.669	679.33
372.051	683.27
372.433	682.36
372.816	685.2
373.198	688.51
373.58	692.43
373.962	695.19
374.344	698.8
374.726	700.88
375.108	702.99
375.49	705.8
375.872	706.2
376.254	706.02
376.636	707.32
377.018	709.38
377.399	712.66
377.781	715.5
378.163	718.61
378.544	723.51
378.926	731.52
379.307	732.79
379.689	735.66
380.07	737.17
380.452	740.52
380.833	747.62
381.214	753.64
381.596	762.26
381.977	774.75
382.358	781.57
382.739	785.37
383.12	785.32
383.501	783.19
383.882	788.17
384.263	786.75
384.644	792.07
385.025	801.18
385.406	800.41
385.787	807.64
386.167	813.14
386.548	823.3
386.929	832.05
387.309	839.54
387.69	851.31
388.07	856.6
388.451	849.53
388.831	852.1
389.211	845.05
389.592	840.97
389.972	843.45
390.352	855.86
390.733	856.64
391.113	863.12
391.493	873.77
391.873	890.76
392.253	901.11
392.633	908.96
393.013	908.37
393.393	909.96
393.772	909.71
394.152	918.97
394.532	913.42
394.912	913.58
395.291	912.96
395.671	920.38
396.05	917.12
396.43	925.24
396.809	931.14
397.189	947.5
397.568	958.73
397.948	962.86
398.327	966.52
398.706	972.66
399.085	969.13
399.465	963.57
399.844	955.43
400.223	950.4
400.602	961.63
400.981	960.17
401.36	959.17
401.739	964.07
402.117	974.34
402.496	968.23
402.875	973.4
403.254	986.14
403.632	993.39
404.011	1005.75
404.39	1020.55
404.768	1028.03
405.147	1039.63
405.525	1038.85
405.903	1034.39
406.282	1033.19
406.66	1023.63
407.038	1018.08
407.417	1017.73
407.795	1030.02
408.173	1039.11
408.551	1044.5
408.929	1049.28
409.307	1051.09
409.685	1056.49
410.063	1059.78
410.441	1061.51
410.818	1068.76
411.196	1081.47
411.574	1100.42
411.952	1108.36
412.329	1128.23
412.707	1141.02
413.084	1136.67
413.462	1129.09
413.839	1137.32
414.217	1129.85
414.594	1135.37
414.971	1145.06
415.349	1149.85
415.726	1153.41
416.103	1145.13
416.48	1152.16
416.857	1157.38
417.234	1169.61
417.611	1173.77
417.988	1175.76
418.365	1170.71
418.742	1178.78
419.119	1204.72
419.495	1200.05
419.872	1211.24
420.249	1264.13
420.625	1272.97
421.002	1288
421.379	1290.94
421.755	1304.36
422.131	1322.82
422.508	1328.25
422.884	1326.48
423.26	1321.16
423.637	1325.1
424.013	1290.36
424.389	1290.12
424.765	1289.69
425.141	1300.18
425.517	1292.75
425.893	1295.95
426.269	1321.79
426.645	1349.34
427.021	1375.6
427.397	1366.7
427.772	1356.2
428.148	1357.89
428.524	1383.84
428.899	1390.54
429.275	1421.26
429.651	1438.79
430.026	1450.09
430.401	1444.42
430.777	1432.52
431.152	1417.01
431.527	1412.7
431.903	1421.24
432.278	1426.51
432.653	1459.84
433.028	1493.2
433.403	1512.25
433.778	1530.78
434.153	1505.54
434.528	1501.21
434.903	1511.23
435.278	1528.99
435.653	1540.02
436.027	1545.06
436.402	1548.37
436.777	1557.58
437.151	1572.69
437.526	1591.39
437.9	1602.07
438.275	1622.44
438.649	1612.54
439.023	1623.12
439.398	1619.72
439.772	1629.44
440.146	1663.34
440.52	1713.31
440.895	1739.42
441.269	1758.71
441.643	1750.94
442.017	1743.73
442.391	1749.73
442.765	1763.7
443.138	1756.25
443.512	1785.33
443.886	1785.7
444.26	1788.57
444.633	1791.84
445.007	1797.82
445.38	1807.64
445.754	1811.68
446.127	1819.23
446.501	1812.52
446.874	1806.77
447.248	1804.69
447.621	1825.2
447.994	1823.41
448.367	1840.61
448.741	1843.99
449.114	1828.91
449.487	1850.8
449.86	1847.26
450.233	1854.74
450.606	1849.57
450.978	1847.66
451.351	1874.02
451.724	1861.23
452.097	1859.92
452.469	1878.12
452.842	1882.17
453.215	1886.22
453.587	1885.45
453.96	1898.98
454.332	1909.58
454.704	1932.44
455.077	1934.83
455.449	1942.79
455.821	1947.92
456.194	1985.32
456.566	1991.54
456.938	2018.78
457.31	2055.49
457.682	2075.08
458.054	2081.72
458.426	2093.03
458.798	2093.69
459.17	2106.65
459.541	2094.35
459.913	2073.98
460.285	2090.34
460.656	2102.61
461.028	2098.42
461.399	2118.58
461.771	2121.54
462.142	2160.36
462.514	2212.33
462.885	2230.3
463.256	2276.75
463.628	2299.83
463.999	2332.03
464.37	2360.15
464.741	2370.85
465.112	2348.14
465.483	2349.49
465.854	2355.15
466.225	2342.87
466.596	2351.04
466.967	2390.48
467.338	2405.58
467.708	2455.29
468.079	2432.69
468.45	2438.79
468.82	2441.78
469.191	2460.03
469.561	2479.23
469.932	2514.23
470.302	2512.55
470.673	2555.43
471.043	2594.66
471.413	2618.69
471.783	2663.78
472.154	2731.83
472.524	2761.74
472.894	2815.94
473.264	2836.75
473.634	2831.74
474.004	2857.68
474.374	2929.05
474.743	2964.23
475.113	3024.01
475.483	3039.42
475.853	3087.22
476.222	3115.19
476.592	3162.71
476.961	3174
477.331	3250.02
477.7	3268.75
478.07	3317.88
478.439	3357.42
478.808	3406.71
479.178	3443.83
479.547	3519.39
479.916	3531.98
480.285	3622.38
480.654	3652.92
481.023	3705.33
481.392	3748.77
481.761	3789.02
482.13	3849.2
482.499	3914.29
482.867	3951.66
483.236	4055.63
483.605	4155
483.973	4199.33
484.342	4354.65
484.71	4917.31
485.079	5432.7
485.447	5713.44
485.816	5522.37
486.184	5125.51
486.552	4840.07
486.921	4697.4
487.289	4650.95
487.657	4684.73
488.025	4705.29
488.393	4746.62
488.761	4835.27
489.129	4907.62
489.497	4935.44
489.865	5012.19
490.233	5030.44
490.6	5068.72
490.968	5077.83
491.336	5132.95
491.703	5186.15
492.071	5262.75
492.438	5310.29
492.806	5326.3
493.173	5400.3
493.541	5433.33
493.908	5421.84
494.275	5463.1
494.642	5479.57
495.01	5550.41
495.377	5615.07
495.744	5686.08
496.111	5750
496.478	5757.16
496.845	5768.04
497.211	5782.96
497.578	5886.33
497.945	5954.78
498.312	6024.98
498.678	6070.02
499.045	6115.93
499.412	6093.06
499.778	6111.66
500.145	6171.7
500.511	6235.73
500.878	6299.46
501.244	6351.05
501.61	6371.49
501.976	6380.83
502.343	6437.83
502.709	6482.56
503.075	6496.06
503.441	6508.08
503.807	6501.12
504.173	6522.41
504.539	6571.05
504.905	6618
505.27	6667.52
505.636	6689.71
506.002	6736.32
506.367	6716.54
506.733	6752.36
507.099	6789.84
507.464	6869.19
507.829	6888.77
508.195	6931.67
508.56	6964.13
508.926	6951.97
509.291	6984.19
509.656	7043.42
510.021	7097.36
510.386	7147.95
510.751	7167.44
511.116	7213.62
511.481	7221.1
511.846	7266.46
512.211	7287.52
512.576	7332.83
512.941	7367.09
513.305	7407.51
513.67	7461.24
514.035	7459.23
514.399	7490.59
514.764	7508.31
515.128	7549.7
515.493	7571.46
515.857	7607.75
516.221	7605.6
516.585	7658.15
516.95	7672.78
517.314	7725.61
517.678	7775.4
518.042	7805.14
518.406	7899.94
518.77	7900.06
519.134	7912.16
519.498	7953.15
519.862	7961.55
520.225	7959.47
520.589	8031.38
520.953	8072
521.316	8102.47
521.68	8117.76
522.043	8182.42
522.407	8192.93
522.77	8232.74
523.134	8335.7
523.497	8334.4
523.86	8396.97
524.223	8432.88
524.587	8489.05
524.95	8527.6
525.313	8607.51
525.676	8621.53
526.039	8688.19
526.402	8677.55
526.765	8762.29
527.127	8798.44
527.49	8871.44
527.853	8918.96
528.215	8938.97
528.578	9038.3
528.941	9063.22
529.303	9102.15
529.666	9138.97
530.028	9179.3
530.39	9205.95
530.753	9238.92
531.115	9306.17
531.477	9367.93
531.839	9436.69
532.201	9502.62
532.564	9600.06
532.926	9681.03
533.287	9779.1
533.649	9820.03
534.011	9857.36
534.373	9941.38
534.735	9979.46
535.097	10024.05
535.458	10035.07
535.82	10066.55
536.181	10119.3
536.543	10168.92
536.904	10209.73
537.266	10353.78
537.627	10455.96
537.988	10506.28
538.35	10519.83
538.711	10550.62
539.072	10640.13
539.433	10633.8
539.794	10699.47
540.155	10749.28
540.516	10818.84
540.877	10928.58
541.238	11019.48
541.599	11076.38
541.959	11140.46
542.32	11225.49
542.681	11271
543.041	11329.89
543.402	11414.98
543.762	11393.55
544.123	11420.56
544.483	11409.19
544.844	11511.33
545.204	11555.6
545.564	11620.8
545.924	11687.59
546.284	11709.61
546.644	11808.86
547.004	11883.18
547.364	11974.01
547.724	12028.89
548.084	11966.38
548.444	12087.01
548.804	12097.11
549.164	12132.31
549.523	12189.9
549.883	12192.6
550.242	12167.54
550.602	12208.84
550.961	12297.67
551.321	12404.02
551.68	12468.22
552.04	12529.76
552.399	12575.2
552.758	12661.27
553.117	12673.04
553.476	12765.21
553.835	12781.61
554.194	12845.89
554.553	12863.38
554.912	12942.62
555.271	13069.18
555.63	13078.61
555.989	13128.49
556.347	13109.77
556.706	13184.95
557.065	13246.38
557.423	13290.47
557.782	13284.64
558.14	13265.56
558.499	13376.18
558.857	13489.46
559.215	13486.65
559.573	13559.86
559.932	13676.14
560.29	13750.15
560.648	13750.27
561.006	13769.79
561.364	13838.19
561.722	13858.03
562.08	13971.76
562.438	13913.99
562.795	14019.37
563.153	14098.09
563.511	14141.19
563.868	14242.94
564.226	14350.94
564.583	14351.24
564.941	14330.8
565.298	14402.53
565.656	14447.56
566.013	14603.84
566.37	14799.05
566.727	14949.19
567.085	15086.37
567.442	15153.49
567.799	15304.61
568.156	15448.31
568.513	15655.35
568.87	15963.05
569.226	16175.58
569.583	16256.3
569.94	16175.58
570.297	16444.82
570.653	16668.6
571.01	16892.36
571.366	16943.23
571.723	16797.27
572.079	16762.34
572.436	16945.93
572.792	17227.06
573.148	17677.1
573.505	17750.29
573.861	17818.92
574.217	17829.9
574.573	17812.25
574.929	17867.04
575.285	18024.25
575.641	18245.08
575.997	18367.52
576.352	18541.09
576.708	18794.65
577.064	19160.03
577.42	19338.22
577.775	19198.93
578.131	18843.18
578.486	18743.02
578.842	18962.38
579.197	19247.43
579.552	19413.57
579.908	19329.48
580.263	19655.21
580.618	20259.01
580.973	21177.2
581.328	21537.31
581.683	20975.04
582.038	20198.08
582.393	19365.06
582.748	18872.39
583.103	18819.82
583.458	19245.12
583.812	19550.86
584.167	20038.18
584.522	20148.02
584.876	20309.27
585.231	20147.99
585.585	19897.29
585.939	19696.86
586.294	19671.71
586.648	20045.62
587.002	20285.63
587.356	20435.71
587.711	20529.46
588.065	20340.03
588.419	20023.72
588.773	19820.7
589.127	19528
589.48	19642.9
589.834	19504.18
590.188	19545.63
590.542	19555.45
590.895	19458.01
591.249	19648.88
591.603	19669.85
591.956	20095.77
592.309	20578.79
592.663	20822.73
593.016	20782.01
593.369	20604.03
593.723	20544.57
594.076	20802.85
594.429	21020.6
594.782	21146.41
595.135	21017.97
595.488	20712.4
595.841	20502.13
596.194	20496.25
596.547	20503.66
596.899	20780.77
597.252	20778.79
597.605	20961.64
597.957	21004.52
598.31	21125.92
598.662	21288.38
599.015	21197.95
599.367	21224.88
599.719	21221.66
600.072	21458.03
600.424	21487.06
600.776	21599.87
601.128	21612.31
601.48	21535.87
601.832	21753.04
602.184	21910.43
602.536	22242.98
602.888	22474.01
603.24	22288.16
603.592	22126.63
603.943	21826.76
604.295	21772.38
604.646	21801.37
604.998	22039.06
605.349	22142.37
605.701	21999.42
606.052	22051.97
606.404	22099.99
606.755	22192.62
607.106	22228.69
607.457	22186.17
607.808	22252.28
608.159	22096.05
608.51	22115.93
608.861	22262.78
609.212	22379.62
609.563	22651.99
609.914	22744.79
610.265	22656.36
610.615	22794.69
610.966	22792.68
611.316	22712.6
611.667	22771.69
612.017	22845.51
612.368	22751.28
612.718	23114.18
613.068	22972.65
613.419	22980.02
613.769	23011.95
614.119	22927.82
614.469	23040.05
614.819	22978.63
615.169	23086.28
615.519	23100.59
615.869	23032.52
616.219	23092.96
616.568	23081.83
616.918	23113.37
617.268	23211.7
617.617	23125.29
617.967	23085.32
618.316	23019.95
618.666	23154.49
619.015	23323
619.364	23442.17
619.714	23707.92
620.063	23488.59
620.412	23388.8
620.761	23323.83
621.11	23400.86
621.459	23469.74
621.808	23611.05
622.157	23853.58
622.506	23853.61
622.855	23955.38
623.203	24016.99
623.552	24036.82
623.901	24176.32
624.249	24089.91
624.598	24032.17
624.946	23913.31
625.295	23880.35
625.643	23944.74
625.991	24131.88
626.34	24075.59
626.688	24156.1
627.036	24376.96
627.384	24345.56
627.732	24121.05
628.08	24173.79
628.428	24309.48
628.776	24442.28
629.124	24415.45
629.471	24449.14
629.819	24480.43
630.167	24360.11
630.514	24393.59
630.862	24426.4
631.209	24573.78
631.557	24584.19
631.904	24718.93
632.251	24719.09
632.599	24571.69
632.946	24625.12
633.293	24703.68
633.64	24745.32
633.987	24784.99
634.334	24905.29
634.681	25005.98
635.028	25097.43
635.375	25129.96
635.722	25192.47
636.068	25338.4
636.415	25312.34
636.762	25229.24
637.108	25347.3
637.455	25306.48
637.801	25465.74
638.147	25507.48
638.494	25409.09
638.84	25549.2
639.186	25650.8
639.532	25670.86
639.878	25722.52
640.225	25766.59
640.571	25694.6
640.916	25661.99
641.262	25632.23
641.608	25721.71
641.954	25718.3
642.3	25864.21
642.645	25770.75
642.991	25997.36
643.337	26188.12
643.682	25981.71
644.028	26109.07
644.373	26047.22
644.718	26102.82
645.064	26163.78
645.409	26268.63
645.754	26250.9
646.099	26413.98
646.444	26392.35
646.789	26337.32
647.134	26222.79
647.479	26350.08
647.824	26500.11
648.169	26776.96
648.513	26966.28
648.858	26773.89
649.203	26628.41
649.547	26763.37
649.892	26713.84
650.236	26831.16
650.581	26742.46
650.925	26860.66
651.269	26896.7
651.613	26796.9
651.958	26907.2
652.302	27094.87
652.646	27059.23
652.99	27156.56
653.334	27355.76
653.678	27204.76
654.022	27247.29
654.365	27356.72
654.709	28465.77
655.053	38947.84
655.396	52662.07
655.74	60977.02
656.083	60386.02
656.427	47343.87
656.77	35697.67
657.114	30494.73
657.457	28465.64
657.8	27832.22
658.143	27654.44
658.486	27420.1
658.83	27350.97
659.173	27179.69
659.516	27217.32
659.858	27347.65
660.201	27317.76
660.544	27399.24
660.887	27472.99
661.229	27431.13
661.572	27422.19
661.915	27449.74
662.257	27368.71
662.6	27647.68
662.942	27671.59
663.284	27734.34
663.627	27636.79
663.969	27549.12
664.311	27414.45
664.653	27404.13
664.995	27398.53
665.337	27449.33
665.679	27435.73
666.021	27354.27
666.363	27182.68
666.705	27240.7
667.046	27243.36
667.388	27207.66
667.73	27242.8
668.071	27265.15
668.413	27521.46
668.754	27765.49
669.096	27668.01
669.437	27839.99
669.778	27649.1
670.119	27625.58
670.461	27418.39
670.802	27482.82
671.143	27549.24
671.484	27653.77
671.825	27720.48
672.165	27659.95
672.506	27590.15
672.847	27621.07
673.188	27564.18
673.528	27514.96
673.869	27664.63
674.21	27774.25
674.55	27591.02
674.89	27444.61
675.231	27506.8
675.571	27610.3
675.911	27625.65
676.252	27694.79
676.592	27798.31
676.932	27684.84
677.272	27415.31
677.612	27638.62
677.952	27802.35
678.292	27718.84
678.631	27675.7
678.971	27539.04
679.311	27810.61
679.651	27858.72
679.99	27754.42
680.33	27620.49
680.669	27670.37
681.009	27616.31
681.348	27862.72
681.687	27786.76
682.026	27608.6
682.366	27598.22
682.705	27867.12
683.044	28035.61
683.383	27875.12
683.722	27988.49
684.061	27872.18
684.4	28114.17
684.738	28036.15
685.077	28003.71
685.416	27997.65
685.754	28103.68
686.093	27907.09
686.431	27904.79
686.77	27737.5
687.108	27913.49
687.447	27824.04
687.785	27972.12
688.123	27846.37
688.461	27847.45
688.799	27654.73
689.137	27658.47
689.475	27692.9
689.813	27626.96
690.151	27703.69
690.489	27558.55
690.827	27650.27
691.164	27940.06
691.502	27900.4
691.84	27698.78
692.177	27752.32
692.515	27840.28
692.852	27685.61
693.189	27594.9
693.527	27662.17
693.864	27569.58
694.201	27712.43
694.538	27705.33
694.875	27821.9
695.212	27613.49
695.549	27584.11
695.886	27655.94
696.223	27682.44
696.56	27811.4
696.897	27823.59
697.233	27864.79
697.57	27875.76
697.906	27791.19
698.243	27551.3
698.579	27734.01
698.916	27848.38
699.252	27646.75
699.588	27617.42
699.924	27492.66
700.261	27273.15
700.597	27361
700.933	27448
701.269	27250.85
701.605	27250.33
701.941	27314.19
702.276	27533.32
702.612	27415.14
702.948	27469.37
703.283	27439.23
703.619	27335.55
703.954	27349.75
704.29	27275.46
704.625	27486.71
704.961	27538.07
705.296	27388.73
705.631	27188.96
705.966	27227.43
706.301	27406.78
706.637	27635.88
706.972	27817.27
707.306	27652.5
707.641	27336.28
707.976	27128.35
708.311	27028.25
708.646	27067.83
708.98	26938.22
709.315	26942.87
709.649	27021.78
709.984	27103.25
710.318	26984.36
710.653	27230.9
710.987	27262.64
711.321	27272.36
711.655	26962.31
711.989	26609.78
712.324	26714.16
712.658	26826.48
712.992	26911.56
713.325	26889.61
713.659	26979.4
713.993	26904.66
714.327	27232.45
714.66	27123.91
714.994	26749.55
715.328	26732.38
715.661	26846.58
715.994	26952.18
716.328	26762
716.661	26650.61
716.994	26743.52
717.328	26736.9
717.661	26880.3
717.994	26632.14
718.327	26570.61
718.66	26517.4
718.993	26465.13
719.325	26529
719.658	26425.95
719.991	26346.33
720.324	26463.52
720.656	26322.09
720.989	26394.1
721.321	26167.22
721.654	26135.17
721.986	25961.77
722.318	25808
722.651	26018.1
722.983	25933.74
723.315	26139.44
723.647	26016.85
723.979	26016.75
724.311	26151.32
724.643	25994.13
724.975	25889.06
725.307	25797.26
725.638	26074.7
725.97	26019.88
726.302	26037.42
726.633	25741.49
726.965	25762.41
727.296	25820.46
727.628	25696.58
727.959	25720.59
728.29	25789.19
728.621	25741.2
728.952	25653.29
729.284	25445.32
729.615	25465.71
729.945	25226.85
730.276	25216.04
730.607	25417.08
730.938	25368.21
731.269	25287.39
731.599	24983.95
731.93	25227.87
732.261	24990.24
732.591	25103.27
732.922	25123.76
733.252	24980.78
733.582	24902.46
733.912	25079.77
734.243	25095.7
734.573	24979.49
734.903	24988.57
735.233	24730.06
735.563	24809.1
735.893	24777.71
736.223	24469.32
736.552	24468.86
736.882	24537.43
737.212	24364.68
737.541	24429.96
737.871	24367.18
738.2	24111.58
738.53	24017.16
738.859	24210.03
739.188	24084.96
739.518	24037.54
739.847	23867.17
740.176	23880.6
740.505	23777.8
740.834	23708.66
741.163	23718.87
741.492	23713.23
741.821	23513.71
742.15	23308.63
742.478	23324.81
742.807	23254.1
743.136	23299.21
743.464	23200.59
743.793	23065.18
744.121	23113.83
744.449	23084.21
744.778	23105.8
745.106	23073.89
745.434	23032
745.762	22827.73
746.09	22805.76
746.418	22841.72
746.746	22699.59
747.074	22653.38
747.402	22719.31
747.73	22486.21
748.057	22356.53
748.385	22274.98
748.712	22345.98
749.04	22461.19
749.367	22592
749.695	22453.66
750.022	22470.83
750.349	22299.79
750.677	22270.79
751.004	22067.98
751.331	21857.02
751.658	21867.18
751.985	21737.77
752.312	21692.96
752.639	21720.44
752.966	21940.68
753.292	21841.32
753.619	21763.37
753.946	21685.77
754.272	21530.34
754.599	21629.48
754.925	21604.08
755.251	21294.66
755.578	21394.54
755.904	21322.89
756.23	21276.16
756.556	21431.6
756.882	21364.15
757.208	21202.98
757.534	21358.25
757.86	21180.81
758.186	21058.02
758.512	20899.37
758.838	20843.37
759.163	20727.56
759.489	20842.81
759.814	20782.1
760.14	20828.54
760.465	20820.36
760.791	20650.25
761.116	20602.36
761.441	20301.52
761.766	20368.53
762.092	20185.25
762.417	20099.02
762.742	20045.73
763.066	20007.03
763.391	20005.65
763.716	19970.29
764.041	20047.58
764.366	19930.44
764.69	19976.05
765.015	19979.29
765.339	19922.41
765.664	19903.3
765.988	19774.09
766.312	19608.56
766.637	19231.37
766.961	19277.17
767.285	19348.36
767.609	19225.61
767.933	19023.49
768.257	19210.57
768.581	19356.74
768.905	19397.8
769.229	19298.28
769.552	19090.51
769.876	19218.23
770.2	19062.64
770.523	18880.42
770.847	18844.6
771.17	18917.95
771.493	18953
771.817	18687.51
772.14	18518.94
772.463	18503.78
772.786	18570.84
773.109	18295.2
773.432	18267.23
773.755	18236.11
774.078	17943.56
774.401	17740.93
774.724	17582.31
775.046	17838.89
775.369	17761.78
775.692	17757.71
776.014	17576.08
776.336	17259.77
776.659	17313.01
776.981	17374.63
777.303	17257.89
777.626	17182.81
777.948	17122.56
778.27	17217.93
778.592	17402.84
778.914	17413.45
779.236	17269.44
779.557	17278.89
779.879	17223.92
780.201	17172.44
780.523	17271.43
780.844	17318.41
781.166	17259.5
781.487	17240.54
781.809	17059
782.13	17181.37
782.451	17239.92
782.772	17356.76
783.094	17133.73
783.415	17270.55
783.736	17407.6
784.057	17447.06
784.378	17157.98
784.698	17138.68
785.019	17257.31
785.34	17244.96
785.661	17396.76
785.981	17498.72
786.302	17409.29
786.622	17435.03
786.943	17616.93
787.263	17337.37
787.583	17368.43
787.903	17488.26
788.224	17480.3
788.544	17647.96
788.864	17554.49
789.184	17452.31
789.504	17266.53
789.824	17328.79
790.143	17231.91
790.463	17393.62
790.783	17229.01
791.102	17205.51
791.422	17312.42
791.741	17298.69
792.061	17340.98
792.38	17297.37
792.699	17127.9
793.019	17264.05
793.338	17234.39
793.657	17276.54
793.976	17364.69
794.295	17295.91
794.614	17225.12
794.933	17183.35
795.252	17036.72
795.57	16865.69
795.889	16833.36
796.208	16753.88
796.526	16519.77
796.845	16625.5
797.163	16527.3
797.482	16632.22
797.8	16624.88
798.118	16642.28
798.436	16668.82
798.754	16637.4
799.073	16505.92
799.391	16418
799.708	16225.44
800.026	16312.85
800.344	16481.63
800.662	16607.68
800.98	16448.9
801.297	16425.17
801.615	16242.49
801.932	16353.94
802.25	16257.87
802.567	16140.49
802.884	15991.81
803.202	16112.76
803.519	16028.7
803.836	16002.29
804.153	15800.59
804.47	15821.83
804.787	15745.61
805.104	15591.67
805.421	15547.59
805.737	15645.69
806.054	15627.75
806.371	15652.67
806.687	15531
807.004	15399.86
807.32	15364.47
807.637	15246.21
807.953	15174.73
808.269	15166.23
808.585	15220.88
808.902	15171.01
809.218	15101.9
809.534	15037.12
809.85	14992.72
810.165	14862.82
810.481	14911.15
810.797	14844.21
811.113	14783.41
811.428	14682.15
811.744	14646.54
812.059	14578.69
812.375	14519.59
812.69	14395.07
813.006	14369.76
813.321	14415.27
813.636	14432.43
813.951	14332.29
814.266	14265.78
814.581	14192.69
814.896	14103.23
815.211	13909.21
815.526	13917.12
815.841	13805.21
816.155	13787.43
816.47	13861.69
816.784	13953.41
817.099	13869.93
817.413	13786.78
817.728	13712.27
818.042	13645.4
818.356	13714.19
818.67	13575.89
818.985	13675
819.299	13548.92
819.613	13600.28
819.926	13413.04
820.24	13411.9
820.554	13412.22
820.868	13428.9
821.182	13270.37
821.495	13272.11
821.809	13120.88
822.122	13014.37
822.436	12980.63
822.749	13036.43
823.062	13023.11
823.376	13060.97
823.689	12831.89
824.002	12690.06
824.315	12599.31
824.628	12672.41
824.941	12638.7
825.254	12565.52
825.566	12457.67
825.879	12370.96
826.192	12288.11
826.504	12266.16
826.817	12336.72
827.129	12487.43
827.442	12392.25
827.754	12263.42
828.066	12270.23
828.379	12081.45
828.691	12097.11
829.003	12070.49
829.315	12108.83
829.627	12048.71
829.939	11977.6
830.251	11950.35
830.562	11853.5
830.874	11756.69
831.186	11654.18
831.497	11802.36
831.809	11845.33
832.12	11775.77
832.432	11593.29
832.743	11574.31
833.054	11427.92
833.365	11437.03
833.676	11413.33
833.988	11428.16
834.299	11469.65
834.61	11466.43
834.92	11350.54
835.231	11229.49
835.542	11175.49
835.853	11140.47
836.163	11179.67
836.474	11185.52
836.784	11051.54
837.095	10992
837.405	10879.83
837.715	10918
838.026	10912.63
838.336	10886.55
838.646	10914.54
838.956	10867.53
839.266	10737.3
839.576	10659.19
839.886	10649.63
840.195	10624.44
840.505	10674.72
840.815	10743.78
841.124	10682.59
841.434	10569.66
841.743	10436.25
842.053	10338.94
842.362	10249.03
842.671	10203.67
842.981	10238.4
843.29	10216.33
843.599	10211.4
843.908	10205.67
844.217	10174.08
844.526	10133.45
844.835	10099.31
845.143	10014.21
845.452	9923.52
845.761	9908.32
846.069	9803.53
846.378	9790.9
846.686	9690.12
846.995	9646.63
847.303	9624.96
847.611	9634.42
847.919	9643.14
848.227	9717.33
848.535	9557.3
848.843	9426.35
849.151	9318.83
849.459	9397.52
849.767	9359.78
850.075	9317.71
850.382	9256.74
850.69	9164.34
850.998	9146.57
851.305	9116.69
851.612	9160.52
851.92	9167.92
852.227	9185.9
852.534	9125.24
852.841	9130.96
853.148	9045.5
853.455	8985.75
853.762	8953.1
854.069	8926.41
854.376	8900.7
854.683	8922.81
854.99	8865.75
855.296	8810.79
855.603	8643.34
855.909	8560.99
856.216	8500.55
856.522	8486.82
856.828	8458.2
857.135	8427.12
857.441	8427.7
857.747	8362.49
858.053	8274.24
858.359	8139.27
858.665	8156.07
858.971	8187.9
859.276	8238.94
859.582	8193.13
859.888	8205.06
860.193	8107.76
860.499	7998.9
860.804	7925.21
861.11	7853.17
861.415	7882.83
861.72	7935.22
862.026	7845.68
862.331	7734.5
862.636	7691.35
862.941	7689.39
863.246	7643.02
863.551	7618.01
863.855	7620.99
864.16	7642.34
864.465	7628.9
864.769	7510.1
865.074	7398.63
865.378	7365.39
865.683	7354.71
865.987	7347.32
866.291	7369.44
866.596	7358.52
866.9	7271.41
867.204	7205.52
867.508	7181.61
867.812	7177.23
868.116	7128.17
868.42	7068.33
868.723	7056.53
869.027	7096.46
869.331	7017.52
869.634	6911.29
869.938	6828.1
870.241	6785.9
870.544	6758
870.848	6751.1
871.151	6801.42
871.454	6772.81
871.757	6776.02
872.06	6691.87
872.363	6591.67
872.666	6568.25
872.969	6511.57
873.272	6527.51
873.574	6539.7
873.877	6565.51
874.18	6580.61
874.482	6506.99
874.785	6483.46
875.087	6435.6
875.389	6381.63
875.692	6345.41
875.994	6289.42
876.296	6284.17
876.598	6289.82
876.9	6223.28
877.202	6105.07
877.504	6080.98
877.805	6076.13
878.107	6102.33
878.409	6074.11
878.71	6099.61
879.012	6033.67
879.313	5982.96
879.615	5944.22
879.916	5872.36
880.217	5837.14
880.518	5796.63
880.82	5784.18
881.121	5732.54
881.422	5708.65
881.723	5687.44
882.023	5663.45
882.324	5633.08
882.625	5535.73
882.926	5481.03
883.226	5494.74
883.527	5466.65
883.827	5507.11
884.128	5502.86
884.428	5495.42
884.728	5368.21
885.028	5316.25
885.328	5256.83
885.629	5214.34
885.929	5205.85
886.228	5206.75
886.528	5179.92
886.828	5113
887.128	5060.27
887.427	4979.88
887.727	4905.81
888.027	4894.99
888.326	4928.52
888.625	4948.59
888.925	4917.38
889.224	4938.67
889.523	4907.56
889.822	4835.72
890.121	4813.91
890.42	4828.43
890.719	4836
891.018	4814.72
891.317	4866.99
891.616	4873.82
891.914	4842.83
892.213	4807.26
892.512	4778.43
892.81	4778.85
893.108	4766.39
893.407	4739.43
893.705	4734.42
894.003	4736.98
894.301	4735.44
894.599	4725.69
894.897	4708.93
895.195	4646.82
895.493	4587.59
895.791	4564.78
896.089	4571.03
896.386	4589.02
896.684	4625.94
896.981	4631.79
897.279	4680.44
897.576	4701.15
897.874	4643.29
898.171	4600.9
898.468	4577.39
898.765	4559.51
899.062	4631.93
899.359	4633.39
899.656	4659.89
899.953	4659.97
900.25	4644.55
900.547	4584.59
900.843	4523.11
901.14	4484.99
901.436	4481.65
901.733	4498.39
902.029	4518.19
902.325	4528.26
902.622	4459.43
902.918	4426.6
903.214	4387.47
903.51	4336.88
903.806	4334.88
904.102	4336.35
904.398	4378.34
904.694	4422.87
904.989	4473.37
905.285	4446.94
905.581	4420.49
905.876	4400.83
906.171	4380.91
906.467	4351.93
906.762	4296.78
907.057	4275.4
907.353	4292.48
907.648	4292.22
907.943	4303.8
908.238	4297.07
908.533	4270.63
908.827	4248.99
909.122	4200.63
909.417	4189.24
909.711	4201.05
910.006	4164.77
910.301	4133.49
910.595	4142.79
910.889	4149.03
911.184	4100.49
911.478	4107.41
911.772	4095.58
912.066	4049.88
912.36	4019.25
912.654	3999.12
912.948	3987.7
913.242	4019.39
913.536	3972.66
913.829	3945.17
914.123	3927.2
914.416	3887.82
914.71	3874.58
915.003	3883.92
915.297	3894.39
915.59	3915.98
915.883	3898.52
916.176	3877.68
916.469	3853.07
916.762	3803.37
917.055	3731.86
917.348	3701.39
917.641	3714.22
917.934	3699.84
918.226	3684.08
918.519	3668.17
918.811	3654.88
919.104	3625.33
919.396	3579.03
919.689	3541.87
919.981	3498.9
920.273	3467.06
920.565	3485.42
920.857	3481.82
921.149	3490.48
921.441	3475
921.733	3441.01
922.025	3404.29
922.316	3362.95
922.608	3325.79
922.9	3287.48
923.191	3256.5
923.483	3261.93
923.774	3237.83
924.065	3237.84
924.357	3202.58
924.648	3180.84
924.939	3160.59
925.23	3132.81
925.521	3107.68
925.812	3099.65
926.102	3070.56
926.393	3065.86
926.684	3057.23
926.975	3051.36
927.265	3063.18
927.556	3060.39
927.846	3016.01
928.136	2973.37
928.427	2935.07
928.717	2908.62
929.007	2882.51
929.297	2856.41
929.587	2868.8
929.877	2875.25
930.167	2873.3
930.457	2850.07
930.746	2806.97
931.036	2767.56
931.325	2716.54
931.615	2687.91
931.904	2685.17
932.194	2673.43
932.483	2667.14
932.772	2670.08
933.062	2655.61
933.351	2630.28
933.64	2585.93
933.929	2557.49
934.218	2518.36
934.506	2489.8
934.795	2495.33
935.084	2496.54
935.372	2498
935.661	2497.11
935.949	2482.22
936.238	2460.83
936.526	2417.83
936.815	2389.71
937.103	2368.19
937.391	2348.39
937.679	2326.01
937.967	2316.54
938.255	2316.04
938.543	2329.86
938.831	2317.68
939.118	2308.07
939.406	2288.03
939.693	2258.5
939.981	2225.34
940.268	2204.03
940.556	2171.92
940.843	2150.78
941.13	2138.08
941.418	2124.1
941.705	2117.62
941.992	2107.35
942.279	2091.28
942.566	2066.02
942.852	2037.59
943.139	2015.6
943.426	1998.5
943.712	1989.95
943.999	1988.85
944.285	1989.37
944.572	1977.37
944.858	1963.56
945.144	1952.49
945.431	1932.17
945.717	1916.19
946.003	1897.83
946.289	1876.66
946.575	1852.83
946.861	1842
947.146	1829.44
947.432	1828.53
947.718	1815.83
948.003	1801.38
948.289	1784.67
948.574	1759.26
948.86	1728.4
949.145	1709.35
949.43	1691.47
949.715	1684.85
950	1676.7
950.285	1668.89
950.57	1674.6
950.855	1674.86
951.14	1664.25
951.425	1646.77
951.709	1629.41
951.994	1610.29
952.278	1604.42
952.563	1593.16
952.847	1585.17
953.132	1575.78
953.416	1566.41
953.7	1549.34
953.984	1535.7
954.268	1516.32
954.552	1496.3
954.836	1478.78
955.12	1464.15
955.404	1451.32
955.687	1440.51
955.971	1435.41
956.254	1430.59
956.538	1421.74
956.821	1422.37
957.105	1408.23
957.388	1399.97
957.671	1384.2
957.954	1370.78
958.237	1353.39
958.52	1334.91
958.803	1319.17
959.086	1311.95
959.369	1308.15
959.652	1311.08
959.934	1311.21
960.217	1308.09
960.499	1297.23
960.782	1283.98
961.064	1271.48
961.346	1252.81
961.629	1241.26
961.911	1227.13
962.193	1217.83
962.475	1210.7
962.757	1209.7
963.039	1210.87
963.32	1212.88
963.602	1204.4
963.884	1189.34
964.165	1173.37
964.447	1162.75
964.728	1147.48
965.01	1131.49
965.291	1122
965.572	1115.05
965.853	1112.09
966.134	1106.43
966.415	1101.07
966.696	1090.12
966.977	1078.37
967.258	1063.53
967.539	1049.83
967.819	1044.73
968.1	1030.66
968.38	1021.11
968.661	1012.35
968.941	1005.06
969.222	999.23
969.502	997.92
969.782	994.21
970.062	989.98
970.342	980.24
970.622	973.3
970.902	963.07
971.182	955.25
971.462	946.89
971.741	941.84
972.021	934.97
972.3	929.78
972.58	925.03
972.859	922.58
973.138	917.51
973.418	911.06
973.697	899.9
973.976	888.17
974.255	873.01
974.534	862.91
974.813	855.31
975.092	846.85
975.37	843.3
975.649	842.94
975.928	840.47
976.206	840.28
976.485	833.69
976.763	824.12
977.041	815.08
977.32	804.15
977.598	792.36
977.876	788.25
978.154	782.59
978.432	779.61
978.71	775.55
978.988	773.67
979.265	774.23
979.543	774.1
979.821	769.32
980.098	764.87
980.376	758.04
980.653	747.44
980.93	739.68
981.208	730.85
981.485	725.31
981.762	718.99
982.039	713.54
982.316	709.7
982.593	709.61
982.87	706.4
983.146	704.17
983.423	699.17
983.7	694.43
983.976	685.26
984.253	681.06
984.529	675.03
984.805	667.69
985.082	661.98
985.358	660.56
985.634	657.4
985.91	655.62
986.186	655.51
986.462	651.53
986.738	647.66
987.013	645.32
987.289	639.42
987.565	634.52
987.84	627.74
988.116	624.29
988.391	619.31
988.666	615.03
988.942	609.15
989.217	607.51
989.492	605.99
989.767	601.7
990.042	595.25
990.317	589.12
990.592	584.92
990.866	582.86
991.141	577.54
991.416	572.35
991.69	567.62
991.964	563.53
992.239	558.23
992.513	557.42
992.787	554.87
993.062	552.67
993.336	546.96
993.61	544.85
993.884	540.72
994.158	535.1
994.431	531.36
994.705	527.84
994.979	526.81
995.252	525.05
995.526	521.55
995.799	520.38
996.073	515.02
996.346	512.07
996.619	513
996.892	510.41
997.165	509.39
997.438	509.05
997.711	505.22
997.984	499.31
998.257	496.01
998.53	491.98
998.802	488.51
999.075	486.25
999.347	486.74
999.62	482.98
999.892	480.24
1000.165	478.95
1000.437	476.03
1000.709	472.72
1000.981	472.32
1001.253	468.5
1001.525	463.66
1001.797	463.45
1002.068	460.03
1002.34	457.05
1002.612	456.61
1002.883	454.74
1003.155	452.06
1003.426	453.04
1003.698	447.55
1003.969	450.98
1004.24	445.78
1004.511	443.68
1004.782	442.25
1005.053	439.07
1005.324	434.64
1005.595	434.9
1005.866	431.41
1006.136	432.15
1006.407	429.21
1006.678	430.24
1006.948	428.44
1007.218	431.44
1007.489	424.72
1007.759	425.05
1008.029	422.54
1008.299	418.82
1008.569	420.09
1008.839	417.2
1009.109	416.78
1009.379	413.79
1009.649	412.55
1009.918	410.44
1010.188	408.68
1010.458	408.21
1010.727	406.6
1010.996	407.1
1011.266	406.16
1011.535	402.26
1011.804	402.12
1012.073	402.13
1012.342	401.52
1012.611	401.64
1012.88	397.89
1013.149	397.73
1013.417	396.42
1013.686	396.01
1013.955	394.19
1014.223	395.06
1014.492	391.79
1014.76	392.16
1015.028	390.13
1015.296	389.48
1015.565	387.87
1015.833	387.01
1016.101	386.88
1016.368	386.48
1016.636	384.39
1016.904	385.62
1017.172	385.66
1017.439	383.1
1017.707	382.36
1017.974	382.13
1018.242	380.04
1018.509	379.78
1018.776	380.85
1019.044	379.95
1019.311	379.92
1019.578	379.98
1019.845	379.21
1020.112	377.46
1020.378	377.46
1020.645	377.46
