Data from 190619_Kr_36K_film_FLMS138901_19-33-53-016.txt Node
Date: Wed Jun 19 19:33:53 EDT 2019
User: pSAM
Spectrometer: FLMS13890
Trigger mode: 0
Integration Time (sec): 5.000000E-3
Scans to average: 1000
Electric dark correction enabled: true
Nonlinearity correction enabled: false
Boxcar width: 0
XAxis mode: Wavelengths
Number of Pixels in Spectrum: 2048
>>>>>Begin Spectral Data<<<<<
342.097	-58.76
342.483	-58.76
342.868	-58.76
343.254	-99.34
343.639	-101
344.025	-102.55
344.41	-98.93
344.796	-88.73
345.181	-80.15
345.567	-66.31
345.952	-50.79
346.337	-35.71
346.722	-21.49
347.107	-0.8
347.493	19.08
347.878	38.56
348.263	57.05
348.648	78.57
349.033	98.17
349.418	116.83
349.802	137.2
350.187	153.62
350.572	173.15
350.957	241.54
351.342	386.64
351.726	414.4
352.111	431.51
352.495	447.17
352.88	458.65
353.264	473.77
353.649	485.43
354.033	497.57
354.418	507.19
354.802	517.19
355.186	523.99
355.57	533
355.955	542.85
356.339	546.56
356.723	550.58
357.107	556.4
357.491	591.82
357.875	564.78
358.259	565.77
358.643	568.51
359.026	569.87
359.41	574.74
359.794	572.06
360.178	575.55
360.561	573.75
360.945	572.06
361.329	575.15
361.712	575.18
362.096	574.38
362.479	575.2
362.862	577.39
363.246	575.25
363.629	573.28
364.012	572.65
364.396	571.88
364.779	572.41
365.162	574.03
365.545	576.64
365.928	577.01
366.311	576.6
366.694	577.93
367.077	583.65
367.46	582.84
367.843	583.87
368.226	582.92
368.608	584.45
368.991	589.28
369.374	589.89
369.756	588.24
370.139	589.63
370.521	587.18
370.904	588.28
371.286	590.38
371.669	593.29
372.051	592.71
372.433	593.99
372.816	595.93
373.198	600.23
373.58	603.97
373.962	603.22
374.344	607.76
374.726	609.53
375.108	614.04
375.49	617.02
375.872	617.56
376.254	618.25
376.636	619.64
377.018	618.08
377.399	621.38
377.781	623.87
378.163	617.91
378.544	620.14
378.926	626.88
379.307	630.52
379.689	635.01
380.07	635.87
380.452	643.53
380.833	647.76
381.214	648.26
381.596	652.68
381.977	658.99
382.358	662.51
382.739	677.56
383.12	683.92
383.501	680.78
383.882	674.24
384.263	674.29
384.644	674.71
385.025	679.71
385.406	681.73
385.787	685.34
386.167	690.99
386.548	694.27
386.929	701.78
387.309	708.2
387.69	713.87
388.07	727.31
388.451	729.29
388.831	737.11
389.211	731.12
389.592	723.29
389.972	721.63
390.352	724.69
390.733	727.4
391.113	727.67
391.493	732.67
391.873	742.55
392.253	749.9
392.633	765.03
393.013	775.17
393.393	777.68
393.772	773.95
394.152	777.58
394.532	778.91
394.912	783.77
395.291	782.25
395.671	782.99
396.05	778.14
396.43	777.66
396.809	779.33
397.189	790.44
397.568	796.64
397.948	804.42
398.327	817.87
398.706	825.07
399.085	825.39
399.465	826.44
399.844	820.93
400.223	811.39
400.602	813.83
400.981	815.23
401.36	816.1
401.739	813.95
402.117	821.2
402.496	815.58
402.875	822.45
403.254	831.42
403.632	826.5
404.011	834.82
404.39	849.66
404.768	851.16
405.147	868.5
405.525	880.56
405.903	883.92
406.282	884.48
406.66	879.21
407.038	870.5
407.417	865.69
407.795	864.13
408.173	870.22
408.551	873.94
408.929	879.62
409.307	883.75
409.685	894.71
410.063	897.19
410.441	896.82
410.818	899.01
411.196	902.64
411.574	912.54
411.952	915.51
412.329	933.45
412.707	949.93
413.084	963.05
413.462	966.36
413.839	967.55
414.217	958.53
414.594	959.5
414.971	960.7
415.349	965.49
415.726	969.75
416.103	963.34
416.48	965.17
416.857	974.43
417.234	987.81
417.611	990.24
417.988	995.7
418.365	979.76
418.742	984.13
419.119	996.06
419.495	1001.09
419.872	1001.33
420.249	1026.54
420.625	1032.35
421.002	1052.01
421.379	1064.52
421.755	1084.38
422.131	1100.85
422.508	1103.04
422.884	1104.81
423.26	1114.93
423.637	1132.82
424.013	1107.48
424.389	1091.1
424.765	1083.7
425.141	1093.09
425.517	1085.92
425.893	1081.1
426.269	1078.98
426.645	1082.74
427.021	1115.56
427.397	1134.52
427.772	1152.96
428.148	1149
428.524	1144.08
428.899	1132.19
429.275	1151.37
429.651	1171.75
430.026	1198.4
430.401	1212.24
430.777	1208
431.152	1203.5
431.527	1191.01
431.903	1192.55
432.278	1184.27
432.653	1184.48
433.028	1190.86
433.403	1227.6
433.778	1264.03
434.153	1269.14
434.528	1260.31
434.903	1248.8
435.278	1259.1
435.653	1264.65
436.027	1264.05
436.402	1277.14
436.777	1289.3
437.151	1300.09
437.526	1309.02
437.9	1317.35
438.275	1337.9
438.649	1334.22
439.023	1341.11
439.398	1340.25
439.772	1342.03
440.146	1344.99
440.52	1365.4
440.895	1390.8
441.269	1436.86
441.643	1470.96
442.017	1467.26
442.391	1455.6
442.765	1448.94
443.138	1436.87
443.512	1461.17
443.886	1475.4
444.26	1476.72
444.633	1485.48
445.007	1491.07
445.38	1488.93
445.754	1498.52
446.127	1507.81
446.501	1507.31
446.874	1507.93
447.248	1499.87
447.621	1510.96
447.994	1504.27
448.367	1508.31
448.741	1514.42
449.114	1506.82
449.487	1525.76
449.86	1534.02
450.233	1533.01
450.606	1530.06
450.978	1523.16
451.351	1535.39
451.724	1535.55
452.097	1531.22
452.469	1548.96
452.842	1548.24
453.215	1555.23
453.587	1558.67
453.96	1567.49
454.332	1568.95
454.704	1580.78
455.077	1595.39
455.449	1612.45
455.821	1608.96
456.194	1627.49
456.566	1628.23
456.938	1648.89
457.31	1665.57
457.682	1698.42
458.054	1707.04
458.426	1735.82
458.798	1751.18
459.17	1755.87
459.541	1751.63
459.913	1733.48
460.285	1729.86
460.656	1729.85
461.028	1723.43
461.399	1745.86
461.771	1746.94
462.142	1770.93
462.514	1789.47
462.885	1816.1
463.256	1869.73
463.628	1884.31
463.999	1909.21
464.37	1955.79
464.741	1970.09
465.112	1952.81
465.483	1964.55
465.854	1983.52
466.225	1966
466.596	1955.2
466.967	1983.29
467.338	1978.85
467.708	2018.12
468.079	2039.21
468.45	2053.47
468.82	2055.43
469.191	2053.74
469.561	2049.49
469.932	2073.58
470.302	2063.47
470.673	2101.02
471.043	2121.78
471.413	2146.4
471.783	2181.78
472.154	2215.68
472.524	2238.21
472.894	2307.88
473.264	2340.19
473.634	2343.96
474.004	2345.66
474.374	2390.68
474.743	2406.78
475.113	2454.61
475.483	2478.07
475.853	2521.09
476.222	2553.4
476.592	2602.17
476.961	2596.04
477.331	2598.61
477.7	2637.32
478.07	2718.81
478.439	2728.27
478.808	2767.13
479.178	2778.78
479.547	2835.85
479.916	2866.46
480.285	2924.25
480.654	2945.25
481.023	2995.03
481.392	3022.28
481.761	3064.93
482.13	3099.91
482.499	3132.8
482.867	3156.72
483.236	3232.78
483.605	3301.6
483.973	3354.62
484.342	3439.32
484.71	3485.24
485.079	3563.39
485.447	4100.4
485.816	4601.53
486.184	4847.03
486.552	4489.07
486.921	4041.15
487.289	3809.05
487.657	3805.96
488.025	3791.92
488.393	3804.44
488.761	3829.85
489.129	3899.33
489.497	3937.87
489.865	4033.11
490.233	4076.59
490.6	4122.25
490.968	4105.22
491.336	4122.32
491.703	4150.24
492.071	4178.52
492.438	4223.57
492.806	4282.2
493.173	4369.34
493.541	4393.96
493.908	4389.38
494.275	4402.31
494.642	4415.51
495.01	4439.67
495.377	4449.99
495.744	4480.3
496.111	4579.14
496.478	4664.7
496.845	4676.95
497.211	4668
497.578	4679.94
497.945	4713.28
498.312	4780.07
498.678	4843.72
499.045	4919.1
499.412	4929.39
499.778	4948.77
500.145	4946.95
500.511	4935.38
500.878	5000.82
501.244	5060.47
501.61	5103.43
501.976	5107.38
502.343	5133.64
502.709	5199.4
503.075	5197.4
503.441	5209.33
503.807	5218.94
504.173	5209.72
504.539	5222.01
504.905	5248.56
505.27	5298.5
505.636	5335.38
506.002	5395.47
506.367	5409.52
506.733	5428.44
507.099	5420.41
507.464	5462.09
507.829	5483.38
508.195	5551.46
508.56	5570.01
508.926	5573.35
509.291	5556.8
509.656	5583.02
510.021	5606.33
510.386	5644.97
510.751	5667.64
511.116	5716.44
511.481	5757.36
511.846	5798.95
512.211	5804.47
512.576	5832.68
512.941	5832.17
513.305	5850.96
513.67	5877.76
514.035	5872.69
514.399	5906.46
514.764	5924.91
515.128	5964.17
515.493	5987.81
515.857	6007.44
516.221	6024.87
516.585	6096.4
516.95	6119.62
517.314	6154.12
517.678	6157.54
518.042	6161.26
518.406	6215.19
518.77	6230.88
519.134	6279.03
519.498	6348.49
519.862	6363.37
520.225	6329.9
520.589	6360.71
520.953	6399.72
521.316	6442.36
521.68	6436.69
522.043	6450.46
522.407	6437.62
522.77	6467.85
523.134	6549.81
523.497	6534.27
523.86	6607.14
524.223	6641.35
524.587	6676.88
524.95	6707.55
525.313	6756.58
525.676	6811.51
526.039	6824.01
526.402	6836.8
526.765	6890.1
527.127	6915.78
527.49	6978.25
527.853	7020.17
528.215	7005.83
528.578	7067.43
528.941	7083.54
529.303	7156.29
529.666	7182.11
530.028	7219.35
530.39	7252.17
530.753	7246.62
531.115	7278.08
531.477	7312.58
531.839	7368.52
532.201	7398.66
532.564	7468.88
532.926	7500.02
533.287	7612.61
533.649	7661.31
534.011	7711.37
534.373	7765.46
534.735	7811.93
535.097	7822.22
535.458	7867.26
535.82	7922.54
536.181	7919.88
536.543	7927.25
536.904	7888.29
537.266	8008
537.627	8087.18
537.988	8115.8
538.35	8155.83
538.711	8238.15
539.072	8302.66
539.433	8304.71
539.794	8370.27
540.155	8370.99
540.516	8398.77
540.877	8429.26
541.238	8482.6
541.599	8539.42
541.959	8579.79
542.32	8669.87
542.681	8706.92
543.041	8697.55
543.402	8728.57
543.762	8799.74
544.123	8789.91
544.483	8863.09
544.844	8911.89
545.204	8936.27
545.564	8961.44
545.924	8986
546.284	9020.17
546.644	9075.03
547.004	9091.62
547.364	9180.16
547.724	9258.62
548.084	9286.17
548.444	9414.24
548.804	9377.84
549.164	9360.36
549.523	9353.64
549.883	9326.11
550.242	9395.01
550.602	9419.48
550.961	9427.59
551.321	9383.92
551.68	9490.57
552.04	9541.84
552.399	9696.82
552.758	9728.09
553.117	9690.92
553.476	9761.72
553.835	9810.15
554.194	9862.5
554.553	9811.74
554.912	9853.31
555.271	9920.3
555.63	9977.97
555.989	9972.07
556.347	10007.84
556.706	10056.22
557.065	10059.01
557.423	10114.62
557.782	10167.5
558.14	10167.73
558.499	10200.76
558.857	10231.46
559.215	10227.85
559.573	10309.28
559.932	10347.71
560.29	10405.2
560.648	10440.18
561.006	10518.54
561.364	10564.56
561.722	10595.86
562.08	10636.65
562.438	10583.55
562.795	10660.62
563.153	10689.27
563.511	10737.49
563.868	10816.94
564.226	10881.95
564.583	10890.57
564.941	10865.51
565.298	10999
565.656	10943.76
566.013	10960.32
566.37	11001.52
566.727	11135.95
567.085	11282.81
567.442	11390.82
567.799	11444.79
568.156	11464.12
568.513	11560.99
568.87	11714.28
569.226	11960
569.583	12204.59
569.94	12300.48
570.297	12337.12
570.653	12279.31
571.01	12443.12
571.366	12697.16
571.723	12811.52
572.079	12694.22
572.436	12639.84
572.792	12585.62
573.148	12864.46
573.505	13055.22
573.861	13374.01
574.217	13398.03
574.573	13441.32
574.929	13392.72
575.285	13359.49
575.641	13477.85
575.997	13553.69
576.352	13679.14
576.708	13738.63
577.064	13936.44
577.42	14265.59
577.775	14515.89
578.131	14586.44
578.486	14345.63
578.842	13985.16
579.197	14131.74
579.552	14337.06
579.908	14615.42
580.263	14795.97
580.618	14538.4
580.973	14671.87
581.328	15458.99
581.683	16195.67
582.038	16380.01
582.393	15518.4
582.748	14878.13
583.103	14324.87
583.458	14038.33
583.812	14131.68
584.167	14527.43
584.522	14850.87
584.876	15133.38
585.231	15158.34
585.585	15181.92
585.939	14874.84
586.294	14688.99
586.648	14611.28
587.002	14625.55
587.356	14958.97
587.711	15372.19
588.065	15329.26
588.419	15431.91
588.773	15204.88
589.127	14866.4
589.48	14712.96
589.834	14548.15
590.188	14648.91
590.542	14640.97
590.895	14506.83
591.249	14642.36
591.603	14594.61
591.956	14630.04
592.309	14808.32
592.663	15043.68
593.016	15356.4
593.369	15557.55
593.723	15322.87
594.076	15187.94
594.429	15206.79
594.782	15515.76
595.135	15770.12
595.488	15739.62
595.841	15506.31
596.194	15266.5
596.547	15169.1
596.899	15089.88
597.252	15210.83
597.605	15352.22
597.957	15321.39
598.31	15277.99
598.662	15466.02
599.015	15561.12
599.367	15664.76
599.719	15557.36
600.072	15627.06
600.424	15773.35
600.776	16042.41
601.128	16111.72
601.48	16088.02
601.832	16094.18
602.184	16002.29
602.536	16165.16
602.888	16290.28
603.24	16667.69
603.592	16755.92
603.943	16527.2
604.295	16166.64
604.646	15916.79
604.998	15991.44
605.349	16110.99
605.701	16346.8
606.052	16324.14
606.404	16274.04
606.755	16338.23
607.106	16445.02
607.457	16368.52
607.808	16356.9
608.159	16284.84
608.51	16245.23
608.861	16312.55
609.212	16264.28
609.563	16482.07
609.914	16600.49
610.265	16589.61
610.615	16762.3
610.966	16700.97
611.316	16865.08
611.667	16910.93
612.017	16844.42
612.368	16543.83
612.718	16788.05
613.068	16766.29
613.419	16893.47
613.769	16946.51
614.119	17008.45
614.469	17051.18
614.819	16887.56
615.169	16951.21
615.519	17089.72
615.869	17017.35
616.219	16952.16
616.568	16745.57
616.918	16714.08
617.268	16956.16
617.617	17009.66
617.967	17088.35
618.316	17037.94
618.666	17013.56
619.015	17087.58
619.364	17092.73
619.714	17407.71
620.063	17390.4
620.412	17395.97
620.761	17204.09
621.11	17174.37
621.459	17071.47
621.808	17162.33
622.157	17336.54
622.506	17490.86
622.855	17671.24
623.203	17669.15
623.552	17712.23
623.901	17668.62
624.249	17537.6
624.598	17666.21
624.946	17647.57
625.295	17597.39
625.643	17544.81
625.991	17645.53
626.34	17628.62
626.688	17683.4
627.036	17878.76
627.384	17882.86
627.732	17980.17
628.08	18008.84
628.428	17948.75
628.776	17924.26
629.124	17896.76
629.471	17930.6
629.819	18027.14
630.167	17971.52
630.514	18041.02
630.862	17980.1
631.209	17952.65
631.557	17902.75
631.904	17955.08
632.251	18021.9
632.599	18040.84
632.946	18206.63
633.293	18385.25
633.64	18257.51
633.987	18307.67
634.334	18235.86
634.681	18209.33
635.028	18332.26
635.375	18408.72
635.722	18509.23
636.068	18516.11
636.415	18582.1
636.762	18765.83
637.108	18840.34
637.455	18744.55
637.801	18784.91
638.147	18934.55
638.494	18934.24
638.84	19090.55
639.186	18921.98
639.532	18880.51
639.878	18916.72
640.225	18910.95
640.571	18892.82
640.916	18963.23
641.262	19020.17
641.608	18972.36
641.954	19113.79
642.3	19114.06
642.645	19053
642.991	19013.78
643.337	19166.59
643.682	19281.21
644.028	19296.56
644.373	19324.74
644.718	19296.58
645.064	19239.63
645.409	19239.92
645.754	19312.67
646.099	19380.25
646.444	19406.47
646.789	19525.57
647.134	19498.7
647.479	19516.34
647.824	19494.08
648.169	19565.62
648.513	19740.44
648.858	19737.24
649.203	19825.8
649.547	19819.11
649.892	19771.02
650.236	19794.2
650.581	19782.83
650.925	19790.81
651.269	19785.19
651.613	19851.47
651.958	19856.08
652.302	20015.06
652.646	19995.23
652.99	19932.55
653.334	20101.56
653.678	20039.62
654.022	20069.13
654.365	20060.81
654.709	20120.03
655.053	20197.45
655.396	20696.02
655.74	29187.3
656.083	44484.81
656.427	50097.09
656.77	46156.16
657.114	29022.32
657.457	22670.96
657.8	21011.17
658.143	20516.75
658.486	20433.98
658.83	20489.1
659.173	20401.06
659.516	20382.04
659.858	20270.6
660.201	20273.35
660.544	20284.79
660.887	20350.96
661.229	20430.91
661.572	20336.98
661.915	20363.75
662.257	20308.08
662.6	20403.14
662.942	20405.58
663.284	20394.31
663.627	20505.99
663.969	20513.05
664.311	20600.62
664.653	20592.19
664.995	20643.07
665.337	20614.9
665.679	20491.59
666.021	20503.21
666.363	20428.37
666.705	20503.32
667.046	20354.77
667.388	20177.95
667.73	20268.37
668.071	20393.4
668.413	20393.29
668.754	20478.66
669.096	20331.59
669.437	20491.42
669.778	20499.48
670.119	20542
670.461	20471.94
670.802	20617
671.143	20582.97
671.484	20574.9
671.825	20584.71
672.165	20648.63
672.506	20791.2
672.847	20808.03
673.188	20821.81
673.528	20729.02
673.869	20642.27
674.21	20687.4
674.55	20687.53
674.89	20615.24
675.231	20635.02
675.571	20651.87
675.911	20605.81
676.252	20643.92
676.592	20769.39
676.932	20719.02
677.272	20700.45
677.612	20719.51
677.952	20736.32
678.292	20784.45
678.631	20824.72
678.971	20781.18
679.311	20863.93
679.651	20884.19
679.99	20869.15
680.33	20848.76
680.669	20760.32
681.009	20744.9
681.348	20762.24
681.687	20695.37
682.026	20771.64
682.366	20700.76
682.705	20779
683.044	20818.59
683.383	20810.55
683.722	20825.36
684.061	20827.19
684.4	20957.49
684.738	20990.38
685.077	20890.53
685.416	20889.65
685.754	20984.88
686.093	21055.31
686.431	21162.17
686.77	20988.44
687.108	20921.52
687.447	20744.35
687.785	20837.46
688.123	20875.1
688.461	20912.85
688.799	20800.92
689.137	20860.63
689.475	20912.93
689.813	20825.61
690.151	21013.42
690.489	20897.92
690.827	20792.22
691.164	20842.53
691.502	20849.71
691.84	20802.42
692.177	20926.78
692.515	20932.55
692.852	20802.69
693.189	20956.28
693.527	20997.2
693.864	20976.78
694.201	21006.13
694.538	20937.2
694.875	20996.45
695.212	20969.53
695.549	21023.93
695.886	20949.67
696.223	20999.64
696.56	21111.16
696.897	20950.79
697.233	21151.76
697.57	21211.04
697.906	21283.55
698.243	21172.36
698.579	20866.25
698.916	20922.66
699.252	20880.62
699.588	20997.75
699.924	21074.3
700.261	20919.78
700.597	20935.65
700.933	21010.49
701.269	20788.05
701.605	20806.99
701.941	20788.56
702.276	20937.77
702.612	20998.02
702.948	21108.08
703.283	21043.87
703.619	20977.26
703.954	20926.8
704.29	20799.97
704.625	20844.74
704.961	20769.06
705.296	20826.34
705.631	20688.13
705.966	20752.9
706.301	20819.95
706.637	20907.85
706.972	21047.53
707.306	21077.46
707.641	21117.98
707.976	21151.97
708.311	21217.56
708.646	21192.53
708.98	20968.31
709.315	20845.86
709.649	20773.66
709.984	20818.14
710.318	20701.07
710.653	20712.04
710.987	20666.11
711.321	20797.86
711.655	20794.41
711.989	20725.56
712.324	20775.34
712.658	20711.12
712.992	20852.3
713.325	20788.65
713.659	20918.3
713.993	20852.49
714.327	20818.43
714.66	20892.73
714.994	20798.11
715.328	20831.46
715.661	20991.25
715.994	21030.93
716.328	20714.03
716.661	20675.33
716.994	20679.11
717.328	20530.97
717.661	20537.96
717.994	20545.91
718.327	20602.74
718.66	20590.24
718.993	20706.97
719.325	20698.53
719.658	20566.87
719.991	20523.36
720.324	20447.94
720.656	20187.58
720.989	20198.75
721.321	20377.71
721.654	20513.66
721.986	20467.22
722.318	20475.17
722.651	20520.57
722.983	20289.36
723.315	20220.69
723.647	20173.16
723.979	20144.42
724.311	20220.24
724.643	20254.45
724.975	20268.05
725.307	20272.24
725.638	20387.47
725.97	20323.61
726.302	20500.53
726.633	20306.15
726.965	20339.9
727.296	20183.66
727.628	20141.21
727.959	20059.49
728.29	20124.2
728.621	19997.02
728.952	20036.6
729.284	19838.77
729.615	19875.05
729.945	19933.52
730.276	20074.12
730.607	20095.04
730.938	19996.6
731.269	19986.37
731.599	19930.24
731.93	19919.87
732.261	19736.61
732.591	19727.23
732.922	19759.31
733.252	19646.77
733.582	19590.08
733.912	19601.56
734.243	19577.57
734.573	19607.73
734.903	19753.54
735.233	19586.76
735.563	19562.97
735.893	19501.03
736.223	19436.36
736.552	19490.7
736.882	19439.98
737.212	19253.31
737.541	19121.47
737.871	19068.73
738.2	18959.42
738.53	18756.89
738.859	18720.32
739.188	18675.19
739.518	18692.09
739.847	18817.85
740.176	18760.59
740.505	18754.73
740.834	18753.94
741.163	18638.71
741.492	18487.65
741.821	18363.56
742.15	18193.52
742.478	18160.56
742.807	18035.11
743.136	18093.35
743.464	18033.77
743.793	18021.53
744.121	18082.88
744.449	18032.69
744.778	17953.51
745.106	18064.36
745.434	18021.53
745.762	17780.89
746.09	17802.33
746.418	17896.43
746.746	17905.06
747.074	17743.05
747.402	17790.26
747.73	17682.22
748.057	17728.2
748.385	17598.31
748.712	17513.82
749.04	17458.62
749.367	17443.89
749.695	17346.89
750.022	17440.99
750.349	17465.86
750.677	17515.41
751.004	17348.99
751.331	17275.79
751.658	17226.57
751.985	17131.49
752.312	17023.97
752.639	16964.33
752.966	16962.45
753.292	16833.41
753.619	16993.27
753.946	17022.52
754.272	16984.86
754.599	16956.85
754.925	16881.74
755.251	16828.68
755.578	16807.01
755.904	16730.65
756.23	16561.49
756.556	16579.02
756.882	16672.7
757.208	16503.67
757.534	16474.75
757.86	16469.76
758.186	16460.32
758.512	16497.46
758.838	16578.08
759.163	16598.04
759.489	16518.18
759.814	16295.08
760.14	16267.76
760.465	16292.57
760.791	16071.71
761.116	15986
761.441	15945.25
761.766	15919.38
762.092	15746.35
762.417	15581.22
762.742	15479.96
763.066	15423.86
763.391	15491
763.716	15564.43
764.041	15641.65
764.366	15551.62
764.69	15419.89
765.015	15334.66
765.339	15334.92
765.664	15446.4
765.988	15438.3
766.312	15340.95
766.637	15196.23
766.961	15076.23
767.285	15035.95
767.609	14881.39
767.933	14819.94
768.257	14990.83
768.581	14929.61
768.905	15030.85
769.229	15052.72
769.552	15005.26
769.876	15052.53
770.2	14854.58
770.523	14801.1
770.847	14696.65
771.17	14695.19
771.493	14761.3
771.817	14728.23
772.14	14477.11
772.463	14335.95
772.786	14249.45
773.109	14174.52
773.432	14268.21
773.755	14159.35
774.078	14044.22
774.401	13954.67
774.724	13903.01
775.046	13957.06
775.369	13903.44
775.692	13781.52
776.014	13635.15
776.336	13525.28
776.659	13560.99
776.981	13579.74
777.303	13585.81
777.626	13515
777.948	13451.87
778.27	13449.01
778.592	13386.77
778.914	13436.68
779.236	13332.3
779.557	13307.38
779.879	13403.73
780.201	13354.56
780.523	13409.29
780.844	13354.67
781.166	13345.86
781.487	13330.14
781.809	13354.07
782.13	13473.84
782.451	13483.32
782.772	13581.17
783.094	13519.9
783.415	13561.09
783.736	13564.81
784.057	13673.03
784.378	13725.08
784.698	13690.24
785.019	13642.48
785.34	13310.66
785.661	13385.31
785.981	13471.51
786.302	13479.64
786.622	13440.52
786.943	13481.56
787.263	13273.82
787.583	13257.43
787.903	13359.78
788.224	13374.94
788.544	13469.92
788.864	13414.56
789.184	13537.67
789.504	13549.52
789.824	13671.92
790.143	13738.25
790.463	13657.86
790.783	13551.97
791.102	13495.33
791.422	13474.52
791.741	13392.3
792.061	13371.09
792.38	13514.12
792.699	13478.44
793.019	13481.41
793.338	13385.51
793.657	13310.14
793.976	13502.59
794.295	13547.79
794.614	13679.67
794.933	13611.77
795.252	13577.52
795.57	13533.29
795.889	13511.39
796.208	13444.11
796.526	13244.52
796.845	13263.53
797.163	13135.26
797.482	13178.65
797.8	13312.71
798.118	13327.96
798.436	13275.92
798.754	13085.04
799.073	12858.66
799.391	12813.99
799.708	12877.09
800.026	12912.79
800.344	12877.53
800.662	12838.18
800.98	12817.77
801.297	12850.15
801.615	12895.57
801.932	12905.19
802.25	12780.19
802.567	12628.78
802.884	12519.78
803.202	12378.85
803.519	12464.18
803.836	12598.14
804.153	12596.64
804.47	12640.27
804.787	12460.9
805.104	12295.8
805.421	12300.09
805.737	12304.34
806.054	12313.82
806.371	12334.8
806.687	12309.29
807.004	12233.82
807.32	12174.31
807.637	12155.4
807.953	12143.99
808.269	12152.17
808.585	12179.22
808.902	12030.47
809.218	11992.77
809.534	11999.6
809.85	12003.07
810.165	11980.37
810.481	11975.32
810.797	11852.52
811.113	11718.84
811.428	11645.37
811.744	11652.23
812.059	11697.55
812.375	11733.83
812.69	11682.21
813.006	11521.11
813.321	11459.16
813.636	11396.08
813.951	11472.42
814.266	11503.26
814.581	11489.96
814.896	11439.34
815.211	11303.35
815.526	11240.22
815.841	11150.51
816.155	11133.1
816.47	11102.15
816.784	11101.42
817.099	10975.79
817.413	10858.16
817.728	10820.78
818.042	10753.73
818.356	10807.68
818.67	10809.2
818.985	10783.72
819.299	10647.82
819.613	10597.42
819.926	10459.05
820.24	10474.22
820.554	10516.27
820.868	10598.46
821.182	10490.31
821.495	10440.9
821.809	10265.2
822.122	10236.61
822.436	10272.97
822.749	10299.92
823.062	10294.65
823.376	10228.52
823.689	10116.71
824.002	10075
824.315	10008.62
824.628	10080.38
824.941	10108.96
825.254	10009.35
825.566	9887.25
825.879	9873.47
826.192	9781.28
826.504	9744.93
826.817	9785.76
827.129	9846.68
827.442	9820.43
827.754	9778.79
828.066	9712.73
828.379	9616.32
828.691	9669.02
829.003	9701.52
829.315	9800.72
829.627	9795.08
829.939	9671.26
830.251	9628.45
830.562	9513.69
830.874	9538.86
831.186	9516.25
831.497	9534.56
831.809	9469.46
832.12	9390.47
832.432	9278.66
832.743	9265.55
833.054	9302.36
833.365	9314.64
833.676	9355.46
833.988	9319.74
834.299	9227.98
834.61	9219.42
834.92	9177.11
835.231	9186.88
835.542	9223.73
835.853	9194.33
836.163	9121.36
836.474	9002.99
836.784	8873.01
837.095	8783.5
837.405	8743.09
837.715	8788.95
838.026	8846.99
838.336	8840.07
838.646	8786.3
838.956	8617.52
839.266	8554.76
839.576	8493.82
839.886	8539.07
840.195	8616.56
840.505	8606.74
840.815	8573.11
841.124	8493.11
841.434	8433.39
841.743	8338.75
842.053	8336.25
842.362	8301.01
842.671	8293.72
842.981	8242.17
843.29	8103.26
843.599	8071.42
843.908	8033.94
844.217	8011.99
844.526	8094.43
844.835	8157.16
845.143	8120.39
845.452	8024.47
845.761	7970.47
846.069	7857.4
846.378	7943.67
846.686	7943.44
846.995	7957.11
847.303	7893.46
847.611	7863.82
847.919	7772.22
848.227	7731.57
848.535	7655.48
848.843	7623.13
849.151	7617.69
849.459	7712.82
849.767	7682.38
850.075	7639.35
850.382	7500.96
850.69	7411.69
850.998	7401.48
851.305	7404.45
851.612	7490.39
851.92	7506.94
852.227	7478.76
852.534	7433.3
852.841	7375.25
853.148	7318.31
853.455	7382.7
853.762	7397.76
854.069	7449
854.376	7422.56
854.683	7353.02
854.99	7230.24
855.296	7126.16
855.603	7039.32
855.909	7001.71
856.216	7038.29
856.522	7049.42
856.828	7017.71
857.135	6956.87
857.441	6892.81
857.747	6781.24
858.053	6756.76
858.359	6698.37
858.665	6777.89
858.971	6793.45
859.276	6762.02
859.582	6677.21
859.888	6594.8
860.193	6495.07
860.499	6472.16
860.804	6530.71
861.11	6541.35
861.415	6562.25
861.72	6537.82
862.026	6431.51
862.331	6386.62
862.636	6327.32
862.941	6327.81
863.246	6314.74
863.551	6353.96
863.855	6360.16
864.16	6307.48
864.465	6226.42
864.769	6137.43
865.074	6073.42
865.378	6052.22
865.683	6054.07
865.987	6114.84
866.291	6080.15
866.596	6064.62
866.9	5959.11
867.204	5878.55
867.508	5811.47
867.812	5812.61
868.116	5837.33
868.42	5822.34
868.723	5813.79
869.027	5806
869.331	5778.23
869.634	5773.6
869.938	5724.18
870.241	5753.25
870.544	5779.85
870.848	5793.75
871.151	5761.3
871.454	5718.23
871.757	5684.24
872.06	5631.46
872.363	5562.63
872.666	5551.15
872.969	5517.16
873.272	5516.14
873.574	5525.12
873.877	5492.49
874.18	5423.39
874.482	5343.24
874.785	5327.49
875.087	5268.3
875.389	5314.35
875.692	5346.17
875.994	5353.6
876.296	5310.48
876.598	5250.58
876.9	5156.72
877.202	5091.75
877.504	5092.62
877.805	5125.33
878.107	5169.25
878.409	5134.8
878.71	5133.67
879.012	5068.05
879.313	4964
879.615	4930.11
879.916	4884.35
880.217	4897.87
880.518	4925.54
880.82	4948.64
881.121	4896.05
881.422	4832.39
881.723	4751.27
882.023	4676.26
882.324	4651.92
882.625	4613.55
882.926	4620.31
883.226	4681.95
883.527	4663.88
883.827	4660.31
884.128	4622.49
884.428	4574.91
884.728	4480.1
885.028	4436.16
885.328	4396.08
885.629	4369.65
885.929	4390.1
886.228	4378.29
886.528	4324.29
886.828	4277.69
887.128	4236.59
887.427	4191.67
887.727	4176.29
888.027	4178.03
888.326	4200.73
888.625	4204.95
888.925	4154.43
889.224	4133.12
889.523	4086.2
889.822	4055.06
890.121	4025.15
890.42	4004.42
890.719	4013.06
891.018	3998.41
891.317	4032.75
891.616	4032.42
891.914	3995.69
892.213	3964.56
892.512	3936.61
892.81	3918.83
893.108	3906.06
893.407	3925.51
893.705	3964.96
894.003	3969.95
894.301	3955.64
894.599	3925.27
894.897	3906.59
895.195	3888.09
895.493	3864.04
895.791	3887.89
896.089	3909.95
896.386	3911.34
896.684	3915.82
896.981	3874.26
897.279	3836.45
897.576	3827.66
897.874	3767.35
898.171	3779.74
898.468	3790.46
898.765	3800.51
899.062	3840.46
899.359	3833.22
899.656	3822.84
899.953	3796.15
900.25	3781.48
900.547	3748.66
900.843	3725.79
901.14	3738.95
901.436	3755.9
901.733	3764.12
902.029	3755.68
902.325	3751.85
902.622	3711.1
902.918	3690.12
903.214	3669.52
903.51	3640.31
903.806	3664.29
904.102	3685.73
904.398	3722.66
904.694	3731.65
904.989	3757.15
905.285	3688.03
905.581	3617.18
905.876	3587.14
906.171	3569.07
906.467	3568.18
906.762	3588.45
907.057	3589.12
907.353	3604.23
907.648	3576.62
907.943	3551.23
908.238	3501.83
908.533	3465.73
908.827	3450.31
909.122	3461.91
909.417	3479.11
909.711	3508.22
910.006	3495.54
910.301	3452.7
910.595	3441.11
910.889	3426.22
911.184	3368.1
911.478	3351.38
911.772	3354.43
912.066	3350.77
912.36	3353.54
912.654	3347.06
912.948	3332.39
913.242	3349.16
913.536	3312.86
913.829	3274.02
914.123	3244.97
914.416	3202.97
914.71	3202.53
915.003	3229.71
915.297	3231.65
915.59	3231.81
915.883	3222.49
916.176	3210.8
916.469	3170.92
916.762	3135.96
917.055	3081.11
917.348	3048.44
917.641	3058.99
917.934	3075.1
918.226	3077.99
918.519	3070.14
918.811	3057.23
919.104	3013.45
919.396	2940.91
919.689	2868.41
919.981	2830.16
920.273	2813.83
920.565	2828.91
920.857	2817.61
921.149	2813.05
921.441	2802.26
921.733	2772.89
922.025	2726.4
922.316	2688.03
922.608	2658.78
922.9	2640.31
923.191	2642.71
923.483	2660.12
923.774	2644.32
924.065	2645.69
924.357	2638.88
924.648	2610.03
924.939	2592.92
925.23	2563.87
925.521	2533
925.812	2504.57
926.102	2487.08
926.393	2480.29
926.684	2490.27
926.975	2481.52
927.265	2463
927.556	2442.88
927.846	2404.24
928.136	2361.73
928.427	2340.64
928.717	2324.96
929.007	2326.12
929.297	2321.41
929.587	2314.33
929.877	2314.41
930.167	2302.53
930.457	2276.57
930.746	2235.31
931.036	2211.24
931.325	2178.88
931.615	2159.29
931.904	2155.97
932.194	2139.45
932.483	2136.97
932.772	2142.43
933.062	2129.73
933.351	2108.51
933.64	2068.93
933.929	2057.58
934.218	2043.49
934.506	2037.12
934.795	2029.91
935.084	2031.88
935.372	2025.96
935.661	2015.27
935.949	1994.54
936.238	1977.37
936.526	1927.79
936.815	1896.98
937.103	1875.43
937.391	1864.09
937.679	1858.71
937.967	1849.48
938.255	1837.56
938.543	1831.67
938.831	1816.16
939.118	1817.71
939.406	1792.91
939.693	1754.95
939.981	1719.48
940.268	1708.68
940.556	1689.25
940.843	1681.84
941.13	1678.88
941.418	1676.82
941.705	1661.85
941.992	1641.39
942.279	1614.24
942.566	1588.64
942.852	1567.38
943.139	1555.58
943.426	1540.98
943.712	1536.57
943.999	1532.28
944.285	1539.9
944.572	1543.68
944.858	1548.78
945.144	1550.01
945.431	1525.94
945.717	1501.21
946.003	1477.45
946.289	1444.46
946.575	1418.5
946.861	1406.55
947.146	1405.29
947.432	1405.83
947.718	1400.31
948.003	1393.76
948.289	1379.99
948.574	1356.9
948.86	1335.17
949.145	1323.22
949.43	1308.03
949.715	1302.2
950	1303.29
950.285	1303.57
950.57	1303.1
950.855	1296.28
951.14	1281.42
951.425	1261.54
951.709	1244
951.994	1220.39
952.278	1203.62
952.563	1186.78
952.847	1167.39
953.132	1164.63
953.416	1170.43
953.7	1168.78
953.984	1168.6
954.268	1159.61
954.552	1142.41
954.836	1125.4
955.12	1112.05
955.404	1098.38
955.687	1086.37
955.971	1080.59
956.254	1076.84
956.538	1078.36
956.821	1074.29
957.105	1069.01
957.388	1064.95
957.671	1051.67
957.954	1042.25
958.237	1032.7
958.52	1022.58
958.803	1014.04
959.086	1006.65
959.369	993.52
959.652	987.14
959.934	979.75
960.217	967.74
960.499	959.14
960.782	945.09
961.064	931.38
961.346	921.11
961.629	908.99
961.911	897.96
962.193	894.07
962.475	888.51
962.757	888.98
963.039	888.82
963.32	889.4
963.602	883.06
963.884	877.5
964.165	870.57
964.447	866.79
964.728	852.48
965.01	841.56
965.291	829.24
965.572	820.04
965.853	814.28
966.134	811.69
966.415	808.56
966.696	808.46
966.977	801.5
967.258	798.36
967.539	792.6
967.819	783.3
968.1	777.09
968.38	768.35
968.661	758.35
968.941	751.62
969.222	749.73
969.502	749.94
969.782	743.11
970.062	741.98
970.342	737.21
970.622	730.32
970.902	721.25
971.182	716.78
971.462	703.76
971.741	699.72
972.021	693.35
972.3	688.17
972.58	686.91
972.859	680.13
973.138	675.75
973.418	672.24
973.697	663.46
973.976	657.5
974.255	650.04
974.534	645.58
974.813	640.63
975.092	637.84
975.37	633.44
975.649	633.8
975.928	629.12
976.206	624.46
976.485	619.26
976.763	614.27
977.041	608.9
977.32	604.86
977.598	597.97
977.876	595.08
978.154	590.19
978.432	585.45
978.71	583.01
978.988	578.7
979.265	577.52
979.543	573.36
979.821	566.88
980.098	567.41
980.376	559.67
980.653	553.73
980.93	548.45
981.208	547.8
981.485	542.01
981.762	541.6
982.039	538.44
982.316	536.73
982.593	533.26
982.87	529.51
983.146	524.8
983.423	520.78
983.7	516.97
983.976	512.41
984.253	509.27
984.529	505.94
984.805	501.11
985.082	496.92
985.358	495.1
985.634	494.62
985.91	492.26
986.186	490.65
986.462	488.01
986.738	485.82
987.013	482.02
987.289	476.91
987.565	474.8
987.84	472.41
988.116	465.57
988.391	468.49
988.666	467.43
988.942	465.12
989.217	461.32
989.492	461.92
989.767	459.02
990.042	456.9
990.317	453.44
990.592	452.33
990.866	449.89
991.141	445.11
991.416	443.02
991.69	441.86
991.964	440.29
992.239	435.14
992.513	436.86
992.787	435.74
993.062	431.86
993.336	431.84
993.61	429.18
993.884	428.79
994.158	425.44
994.431	426.64
994.705	421.44
994.979	421.13
995.252	417.63
995.526	416.9
995.799	416.92
996.073	414.24
996.346	415.88
996.619	414.76
996.892	412.16
997.165	410.74
997.438	410.57
997.711	408.77
997.984	406.82
998.257	406.27
998.53	407.79
998.802	405.42
999.075	404.29
999.347	398.86
999.62	400.35
999.892	398.52
1000.165	397.79
1000.437	398.52
1000.709	396.12
1000.981	397.03
1001.253	395.43
1001.525	394.77
1001.797	392.51
1002.068	391.63
1002.34	390.97
1002.612	388.75
1002.883	387.86
1003.155	388.62
1003.426	386.06
1003.698	385.45
1003.969	384.9
1004.24	386.19
1004.511	383.34
1004.782	381.47
1005.053	382.06
1005.324	382.38
1005.595	382.89
1005.866	381.51
1006.136	378.79
1006.407	378.73
1006.678	377.7
1006.948	377.95
1007.218	378.43
1007.489	375.94
1007.759	375.84
1008.029	377.27
1008.299	376.07
1008.569	376.85
1008.839	373.52
1009.109	373.13
1009.379	372.49
1009.649	370.2
1009.918	373.46
1010.188	372.37
1010.458	371.5
1010.727	370.73
1010.996	373.06
1011.266	371.46
1011.535	368.55
1011.804	369.55
1012.073	368.23
1012.342	369.66
1012.611	368
1012.88	369.37
1013.149	368.18
1013.417	366.55
1013.686	368.85
1013.955	365.93
1014.223	366.68
1014.492	367.18
1014.76	365.66
1015.028	365.53
1015.296	365.82
1015.565	366.44
1015.833	365.47
1016.101	366.47
1016.368	364.74
1016.636	363.08
1016.904	364.07
1017.172	364.02
1017.439	364.73
1017.707	364.85
1017.974	363.3
1018.242	364.39
1018.509	363.9
1018.776	362.47
1019.044	363.47
1019.311	361.55
1019.578	362.3
1019.845	363.13
1020.112	361.68
1020.378	361.68
1020.645	361.68
