Data from 190726_Ar_33K_film_FLMS138901_13-23-43-975.txt Node
Date: Fri Jul 26 13:23:43 EDT 2019
User: pSAM
Spectrometer: FLMS13890
Trigger mode: 0
Integration Time (sec): 5.000000E-3
Scans to average: 1000
Electric dark correction enabled: true
Nonlinearity correction enabled: false
Boxcar width: 0
XAxis mode: Wavelengths
Number of Pixels in Spectrum: 2048
>>>>>Begin Spectral Data<<<<<
342.097	-63.8
342.483	-63.8
342.868	-63.8
343.254	-105.37
343.639	-107.03
344.025	-105.06
344.41	-99.48
344.796	-90.28
345.181	-81.6
345.567	-69.57
345.952	-52.49
346.337	-34.08
346.722	-17.5
347.107	0.96
347.493	20.17
347.878	39.6
348.263	59.68
348.648	78.24
349.033	97.96
349.418	117.54
349.802	135.92
350.187	154.25
350.572	171.6
350.957	198.17
351.342	241.26
351.726	259.4
352.111	274.75
352.495	283.5
352.88	297.63
353.264	311.1
353.649	321.09
354.033	330.98
354.418	337.29
354.802	345.89
355.186	354.11
355.57	360.42
355.955	363.87
356.339	369.95
356.723	370.79
357.107	375.16
357.491	392.35
357.875	381.37
358.259	381.81
358.643	383.52
359.026	384.16
359.41	384.11
359.794	383.62
360.178	385.15
360.561	382.93
360.945	379.09
361.329	378.96
361.712	379.77
362.096	380.5
362.479	375.93
362.862	375.64
363.246	375.95
363.629	372.46
364.012	372.21
364.396	371.69
364.779	369.52
365.162	369.41
365.545	369.03
365.928	367.67
366.311	365.67
366.694	368.88
367.077	366.66
367.46	364.17
367.843	366.45
368.226	363.84
368.608	365.05
368.991	364.54
369.374	362.88
369.756	365.64
370.139	364.29
370.521	364.72
370.904	366.25
371.286	366.96
371.669	368.66
372.051	367.46
372.433	369.74
372.816	369.71
373.198	368.44
373.58	371.69
373.962	372.96
374.344	374.33
374.726	372
375.108	372.72
375.49	375.39
375.872	377.06
376.254	377.79
376.636	379.35
377.018	377.47
377.399	380.05
377.781	379.88
378.163	381.37
378.544	383.47
378.926	382.55
379.307	385.39
379.689	386.34
380.07	387.86
380.452	388.23
380.833	391.13
381.214	391.4
381.596	391.82
381.977	394.16
382.358	393.15
382.739	398.28
383.12	398.38
383.501	398.8
383.882	399.11
384.263	402.49
384.644	400.54
385.025	404.13
385.406	404.48
385.787	404.53
386.167	405.52
386.548	409.09
386.929	410.25
387.309	411.79
387.69	414.35
388.07	415.39
388.451	418.91
388.831	418.34
389.211	417.79
389.592	415.29
389.972	416.2
390.352	418.48
390.733	419.73
391.113	419.8
391.493	420.02
391.873	426.08
392.253	424.55
392.633	429.06
393.013	431.43
393.393	433.52
393.772	431.61
394.152	434.76
394.532	433.82
394.912	437.06
395.291	435.61
395.671	435.67
396.05	436.73
396.43	436.59
396.809	438.88
397.189	437.8
397.568	442.92
397.948	442.21
398.327	446.34
398.706	448.97
399.085	449.53
399.465	449.24
399.844	449.67
400.223	447.64
400.602	447.03
400.981	449.23
401.36	449.76
401.739	450.05
402.117	452.22
402.496	453.16
402.875	452.79
403.254	454.37
403.632	455.76
404.011	460.67
404.39	463.43
404.768	466.06
405.147	468.1
405.525	472.97
405.903	472.64
406.282	474.06
406.66	471.62
407.038	468.45
407.417	469.48
407.795	469.36
408.173	473.29
408.551	471.65
408.929	473.32
409.307	475.65
409.685	479.73
410.063	479.3
410.441	480.52
410.818	479.78
411.196	481.9
411.574	486.79
411.952	485.3
412.329	491.4
412.707	496.08
413.084	499.61
413.462	500.63
413.839	501.75
414.217	498.34
414.594	500.17
414.971	502.73
415.349	504.01
415.726	502.74
416.103	501.29
416.48	503.1
416.857	505.04
417.234	510.28
417.611	507.78
417.988	510.65
418.365	509.47
418.742	508.53
419.119	514.15
419.495	513.73
419.872	514.38
420.249	527.87
420.625	526.05
421.002	531.6
421.379	533.2
421.755	539.1
422.131	540.48
422.508	543.75
422.884	547
423.26	548.02
423.637	552.57
424.013	546.81
424.389	543.37
424.765	542.41
425.141	543.11
425.517	542.86
425.893	541.06
426.269	543.74
426.645	543.26
427.021	553.57
427.397	560.05
427.772	562.62
428.148	561.51
428.524	562.43
428.899	560.44
429.275	566.42
429.651	568.99
430.026	574.35
430.401	580.25
430.777	580.54
431.152	577.91
431.527	575.96
431.903	574.56
432.278	576.19
432.653	574.7
433.028	582.47
433.403	590.44
433.778	602
434.153	601.46
434.528	598.49
434.903	602.46
435.278	611.92
435.653	621.54
436.027	623.83
436.402	623.36
436.777	620.38
437.151	617.15
437.526	618.94
437.9	617.81
438.275	624.86
438.649	623.95
439.023	628.77
439.398	627.86
439.772	629.03
440.146	628.05
440.52	636.19
440.895	647.3
441.269	657.62
441.643	662.18
442.017	661.58
442.391	659.39
442.765	660.28
443.138	659.15
443.512	663.96
443.886	665.58
444.26	666.95
444.633	671.61
445.007	672.63
445.38	673.16
445.754	674.79
446.127	677.14
446.501	677.11
446.874	675.8
447.248	677.41
447.621	682.43
447.994	678.72
448.367	681.86
448.741	686.14
449.114	684.47
449.487	691.09
449.86	690.47
450.233	689.85
450.606	688.91
450.978	688.93
451.351	695.33
451.724	688.64
452.097	694.82
452.469	698.16
452.842	696.78
453.215	699.92
453.587	700.91
453.96	704.18
454.332	702.94
454.704	712.62
455.077	712.33
455.449	716.76
455.821	716.84
456.194	722.97
456.566	725.54
456.938	731.02
457.31	736.27
457.682	746.24
458.054	750.35
458.426	755.53
458.798	760.66
459.17	764.69
459.541	760.57
459.913	760.5
460.285	755.81
460.656	760.11
461.028	757.63
461.399	766.14
461.771	762.42
462.142	769.15
462.514	782.12
462.885	786.18
463.256	802.73
463.628	809.91
463.999	816.63
464.37	831.67
464.741	833.98
465.112	830.67
465.483	835.4
465.854	840.02
466.225	833.51
466.596	832.86
466.967	842.55
467.338	845.83
467.708	855.05
468.079	857.78
468.45	863.23
468.82	867.74
469.191	867.7
469.561	869.37
469.932	875
470.302	869.58
470.673	882.3
471.043	889.11
471.413	896.84
471.783	906.58
472.154	919.19
472.524	933.16
472.894	949.83
473.264	961.69
473.634	958.12
474.004	961.29
474.374	974.22
474.743	983.29
475.113	995.5
475.483	1004.5
475.853	1021.36
476.222	1025.57
476.592	1043.23
476.961	1038.8
477.331	1046.57
477.7	1059.51
478.07	1081.39
478.439	1089.18
478.808	1098.66
479.178	1104.27
479.547	1123.24
479.916	1127.23
480.285	1147.7
480.654	1157.79
481.023	1167.37
481.392	1178.27
481.761	1189.34
482.13	1204.87
482.499	1218.43
482.867	1229.51
483.236	1255.37
483.605	1281.43
483.973	1293.51
484.342	1321.12
484.71	1336.99
485.079	1406.55
485.447	1584.17
485.816	1715.38
486.184	1753.71
486.552	1623.86
486.921	1521.55
487.289	1461.1
487.657	1446.22
488.025	1441.25
488.393	1447.18
488.761	1456.51
489.129	1484.25
489.497	1493.74
489.865	1529.39
490.233	1542.43
490.6	1554.49
490.968	1545.23
491.336	1554.62
491.703	1566.8
492.071	1585.74
492.438	1595.89
492.806	1617.71
493.173	1643.32
493.541	1647.28
493.908	1650.58
494.275	1654.48
494.642	1656.66
495.01	1666.28
495.377	1672.78
495.744	1688.73
496.111	1722.14
496.478	1745.14
496.845	1748.59
497.211	1746.13
497.578	1755.82
497.945	1770.98
498.312	1798.73
498.678	1823.94
499.045	1845.51
499.412	1841.84
499.778	1845.92
500.145	1846.57
500.511	1847.54
500.878	1878.26
501.244	1903.33
501.61	1918.54
501.976	1919.27
502.343	1925.62
502.709	1946.47
503.075	1953.15
503.441	1953.95
503.807	1962.94
504.173	1958.58
504.539	1968.92
504.905	1986.6
505.27	2006.96
505.636	2015.16
506.002	2032.24
506.367	2032.37
506.733	2039.44
507.099	2040.77
507.464	2053.05
507.829	2063.35
508.195	2086.42
508.56	2091.61
508.926	2088.43
509.291	2092.55
509.656	2103.59
510.021	2120.01
510.386	2135.47
510.751	2147.13
511.116	2169.19
511.481	2174.58
511.846	2185.46
512.211	2188.96
512.576	2202.86
512.941	2206.49
513.305	2216.96
513.67	2224.84
514.035	2234.42
514.399	2251.21
514.764	2254.99
515.128	2276.46
515.493	2285.99
515.857	2294.88
516.221	2295.75
516.585	2310.27
516.95	2317.41
517.314	2330.01
517.678	2334.82
518.042	2347.61
518.406	2372.5
518.77	2373.39
519.134	2387.87
519.498	2406.07
519.862	2409.36
520.225	2407.68
520.589	2427.17
520.953	2435.6
521.316	2451.15
521.68	2458.58
522.043	2474.43
522.407	2479.98
522.77	2484.56
523.134	2511.81
523.497	2515.81
523.86	2534.71
524.223	2552.73
524.587	2570.41
524.95	2579.15
525.313	2588.31
525.676	2608.01
526.039	2618.33
526.402	2626.88
526.765	2651.6
527.127	2662.4
527.49	2675.21
527.853	2691.49
528.215	2694.76
528.578	2720.39
528.941	2731.62
529.303	2762.22
529.666	2760.54
530.028	2784.4
530.39	2800
530.753	2807.13
531.115	2825.47
531.477	2846.5
531.839	2860.63
532.201	2866.93
532.564	2890.85
532.926	2905.43
533.287	2953.75
533.649	2966.46
534.011	2984.24
534.373	3008.67
534.735	3033.08
535.097	3052.11
535.458	3071.57
535.82	3096.02
536.181	3108.44
536.543	3107.16
536.904	3096.32
537.266	3143.18
537.627	3174.46
537.988	3198
538.35	3216.91
538.711	3233.93
539.072	3264.23
539.433	3268.27
539.794	3301.98
540.155	3312.47
540.516	3339.35
540.877	3362.91
541.238	3398.72
541.599	3448.92
541.959	3491.42
542.32	3536.08
542.681	3552.32
543.041	3557.71
543.402	3578.69
543.762	3595.27
544.123	3598.03
544.483	3618.73
544.844	3643.83
545.204	3647.81
545.564	3661
545.924	3682.46
546.284	3692.9
546.644	3690.52
547.004	3693.04
547.364	3702.68
547.724	3721.3
548.084	3732.06
548.444	3768.27
548.804	3758.48
549.164	3765.43
549.523	3778.16
549.883	3791.03
550.242	3794.31
550.602	3811.98
550.961	3825.51
551.321	3816.57
551.68	3851.21
552.04	3866.52
552.399	3905.26
552.758	3918
553.117	3906.52
553.476	3935.38
553.835	3945.5
554.194	3961.91
554.553	3945.39
554.912	3947.37
555.271	3984.67
555.63	4022.6
555.989	4050.15
556.347	4050.23
556.706	4074.97
557.065	4091.67
557.423	4106.46
557.782	4135.78
558.14	4139.4
558.499	4152.28
558.857	4166.05
559.215	4168.69
559.573	4198.68
559.932	4219.89
560.29	4253.53
560.648	4268.17
561.006	4272.31
561.364	4283.24
561.722	4300.41
562.08	4326
562.438	4327.83
562.795	4359.76
563.153	4375.92
563.511	4393.87
563.868	4418.28
564.226	4422.89
564.583	4465.3
564.941	4453.88
565.298	4501.06
565.656	4504.06
566.013	4533.88
566.37	4567.82
566.727	4608.7
567.085	4659.95
567.442	4706.35
567.799	4733.44
568.156	4762.09
568.513	4812.31
568.87	4878.37
569.226	4961.75
569.583	5069.27
569.94	5093.23
570.297	5108.23
570.653	5106.88
571.01	5152.55
571.366	5274.08
571.723	5322.54
572.079	5300.98
572.436	5287.95
572.792	5307.74
573.148	5396.63
573.505	5477.59
573.861	5584.78
574.217	5624.49
574.573	5643.93
574.929	5642.36
575.285	5650.4
575.641	5687.32
575.997	5730.72
576.352	5745.83
576.708	5773.16
577.064	5880.6
577.42	6025.7
577.775	6128.09
578.131	6153.23
578.486	6084.45
578.842	5982.27
579.197	6040.66
579.552	6092.63
579.908	6191.13
580.263	6231.87
580.618	6195.67
580.973	6321.66
581.328	6617.16
581.683	6880.6
582.038	6889.67
582.393	6594.99
582.748	6334.25
583.103	6094.57
583.458	6011.04
583.812	6091.31
584.167	6225.85
584.522	6357.63
584.876	6448.44
585.231	6508.18
585.585	6494.9
585.939	6389.03
586.294	6321.46
586.648	6308.76
587.002	6296.62
587.356	6437.95
587.711	6571.7
588.065	6616.09
588.419	6643.96
588.773	6541.62
589.127	6407.25
589.48	6363.8
589.834	6262.98
590.188	6295.66
590.542	6310.97
590.895	6260.19
591.249	6301.61
591.603	6288.48
591.956	6296.03
592.309	6385.43
592.663	6499.66
593.016	6670.78
593.369	6720.85
593.723	6657.13
594.076	6646.21
594.429	6667.21
594.782	6759.86
595.135	6863.89
595.488	6864.2
595.841	6768.77
596.194	6659.98
596.547	6629.87
596.899	6628.19
597.252	6668.14
597.605	6691.69
597.957	6691.18
598.31	6718.75
598.662	6774.59
599.015	6776.89
599.367	6845.03
599.719	6889.13
600.072	6887.85
600.424	6882.79
600.776	6999.27
601.128	7004.85
601.48	7032.96
601.832	7031.71
602.184	7019.13
602.536	7034.98
602.888	7176.4
603.24	7281.13
603.592	7318.48
603.943	7261.81
604.295	7155.08
604.646	7076.81
604.998	7086.83
605.349	7116.84
605.701	7146.04
606.052	7173.4
606.404	7161.98
606.755	7201.25
607.106	7254.44
607.457	7221.77
607.808	7220.58
608.159	7215.02
608.51	7234.78
608.861	7233.67
609.212	7215.86
609.563	7342.47
609.914	7399.73
610.265	7460.61
610.615	7549.8
610.966	7584.11
611.316	7633.34
611.667	7712.56
612.017	7729.6
612.368	7580
612.718	7612.38
613.068	7609.58
613.419	7604.15
613.769	7641.84
614.119	7685.14
614.469	7724.9
614.819	7627.05
615.169	7610.57
615.519	7656.93
615.869	7658.73
616.219	7590.11
616.568	7528.29
616.918	7539.62
617.268	7595.98
617.617	7630.77
617.967	7657.08
618.316	7652.96
618.666	7616.66
619.015	7622.04
619.364	7669.32
619.714	7817.14
620.063	7839.2
620.412	7820.18
620.761	7792.42
621.11	7766.57
621.459	7730.08
621.808	7797.19
622.157	7865.95
622.506	7882.87
622.855	7961.83
623.203	7983.52
623.552	7974.05
623.901	8007.83
624.249	7979.78
624.598	8013.27
624.946	7952.63
625.295	7972.47
625.643	7983.73
625.991	8026.84
626.34	7980.53
626.688	8021.51
627.036	8106.35
627.384	8090.64
627.732	8094.34
628.08	8099.04
628.428	8096.25
628.776	8112.59
629.124	8137.42
629.471	8170.03
629.819	8203.6
630.167	8194.61
630.514	8192.69
630.862	8138.95
631.209	8198.83
631.557	8213.95
631.904	8206.66
632.251	8227.84
632.599	8217.48
632.946	8241.45
633.293	8225.06
633.64	8234.96
633.987	8286.63
634.334	8293.25
634.681	8299.1
635.028	8373.07
635.375	8381.81
635.722	8463.26
636.068	8466.43
636.415	8538.74
636.762	8570.05
637.108	8601.08
637.455	8527.02
637.801	8546.2
638.147	8629.3
638.494	8616.06
638.84	8661.91
639.186	8639.9
639.532	8625.74
639.878	8663.7
640.225	8692.56
640.571	8757.67
640.916	8778.57
641.262	8772.37
641.608	8740.36
641.954	8766.28
642.3	8799.1
642.645	8783.62
642.991	8889.28
643.337	8899.99
643.682	8895.74
644.028	8920.67
644.373	8933.22
644.718	8963.54
645.064	8940.45
645.409	8961.53
645.754	8994.39
646.099	8987.29
646.444	8973.83
646.789	9034.52
647.134	9019.57
647.479	9047.79
647.824	9042.01
648.169	9079.68
648.513	9151.1
648.858	9150.29
649.203	9190.3
649.547	9240.43
649.892	9259.13
650.236	9294.98
650.581	9276.69
650.925	9253.36
651.269	9222.6
651.613	9324.18
651.958	9348.93
652.302	9384.72
652.646	9364.09
652.99	9387.63
653.334	9461.67
653.678	9444.43
654.022	9435.3
654.365	9394.43
654.709	9434.42
655.053	9507.43
655.396	10312.09
655.74	15116.87
656.083	20295.18
656.427	23272.78
656.77	21336.42
657.114	15500.59
657.457	12020.99
657.8	10485.97
658.143	9936.27
658.486	9782.98
658.83	9715.35
659.173	9674.16
659.516	9693.37
659.858	9690.78
660.201	9604.31
660.544	9579.25
660.887	9681.19
661.229	9729.08
661.572	9659.75
661.915	9663.04
662.257	9642.44
662.6	9729.17
662.942	9721.14
663.284	9703.68
663.627	9734.64
663.969	9763.1
664.311	9749.02
664.653	9719.92
664.995	9737.81
665.337	9725.66
665.679	9690.41
666.021	9695.86
666.363	9642.99
666.705	9776.01
667.046	9828.45
667.388	9815.87
667.73	9831.44
668.071	9802.85
668.413	9818.65
668.754	9830.45
669.096	9799.98
669.437	9888.99
669.778	9880.46
670.119	9847.69
670.461	9852.47
670.802	9862.2
671.143	9849.13
671.484	9809.67
671.825	9853.58
672.165	9953.81
672.506	9992.95
672.847	10025.28
673.188	9998.12
673.528	9963.62
673.869	9909.76
674.21	9970.05
674.55	9994.53
674.89	9989.4
675.231	9980.75
675.571	9941.68
675.911	9889.14
676.252	9898.3
676.592	10013.88
676.932	9959.75
677.272	9938.62
677.612	9993.3
677.952	9987.41
678.292	10019.3
678.631	10028.92
678.971	10021.24
679.311	10069.16
679.651	10088.44
679.99	10141.93
680.33	10147.21
680.669	10088.52
681.009	10040.19
681.348	10118.17
681.687	10152.84
682.026	10186.15
682.366	10124.46
682.705	10168.35
683.044	10168.86
683.383	10144.44
683.722	10161.83
684.061	10132.82
684.4	10197.31
684.738	10199.3
685.077	10241.76
685.416	10222.38
685.754	10223.23
686.093	10271.28
686.431	10314.73
686.77	10233.65
687.108	10235.14
687.447	10228.34
687.785	10322.48
688.123	10262.53
688.461	10277.74
688.799	10152.34
689.137	10227.52
689.475	10306.41
689.813	10227.09
690.151	10301.48
690.489	10243.33
690.827	10285.19
691.164	10335.4
691.502	10317.87
691.84	10339.61
692.177	10365.77
692.515	10399.49
692.852	10281.13
693.189	10361.76
693.527	10437.67
693.864	10402.88
694.201	10389
694.538	10371.75
694.875	10352.42
695.212	10295.39
695.549	10340.67
695.886	10343.33
696.223	10331.01
696.56	10400.15
696.897	10356.06
697.233	10326.48
697.57	10350.64
697.906	10447.33
698.243	10407.6
698.579	10317.73
698.916	10314.44
699.252	10320.98
699.588	10374.27
699.924	10440.71
700.261	10368.69
700.597	10369.62
700.933	10410.85
701.269	10334.1
701.605	10397.01
701.941	10413.71
702.276	10454.46
702.612	10396.62
702.948	10480.2
703.283	10498.98
703.619	10468.35
703.954	10479.76
704.29	10445.89
704.625	10460.8
704.961	10414.32
705.296	10441.9
705.631	10422.22
705.966	10405.23
706.301	10428.57
706.637	10512.58
706.972	10613.96
707.306	10639.38
707.641	10645.56
707.976	10558.9
708.311	10602.79
708.646	10651.32
708.98	10565.02
709.315	10593.36
709.649	10454.81
709.984	10456.13
710.318	10416.66
710.653	10454.36
710.987	10496.52
711.321	10553.57
711.655	10503.68
711.989	10405.46
712.324	10504.79
712.658	10534.86
712.992	10555.65
713.325	10527.44
713.659	10572.63
713.993	10522.64
714.327	10537.18
714.66	10602.53
714.994	10577.14
715.328	10534.63
715.661	10517.81
715.994	10523.41
716.328	10461.49
716.661	10487.08
716.994	10489.58
717.328	10414.67
717.661	10397.76
717.994	10442.52
718.327	10417.29
718.66	10424.03
718.993	10487.11
719.325	10470.86
719.658	10443.62
719.991	10411.17
720.324	10492.46
720.656	10452.2
720.989	10376.41
721.321	10370.31
721.654	10411.4
721.986	10446.92
722.318	10391.45
722.651	10404.51
722.983	10383.93
723.315	10438.58
723.647	10405.57
723.979	10461.21
724.311	10479.67
724.643	10420.84
724.975	10434.94
725.307	10428.17
725.638	10516.06
725.97	10483.82
726.302	10563.15
726.633	10503.47
726.965	10547.91
727.296	10423.82
727.628	10427.52
727.959	10391.41
728.29	10406.26
728.621	10312.14
728.952	10392.19
729.284	10308.49
729.615	10350.82
729.945	10333.63
730.276	10397.33
730.607	10373
730.938	10338.54
731.269	10315.84
731.599	10294.18
731.93	10305.46
732.261	10219.72
732.591	10177.44
732.922	10194.99
733.252	10153.91
733.582	10143.43
733.912	10191.81
734.243	10250.61
734.573	10288.18
734.903	10353.08
735.233	10240.1
735.563	10252.3
735.893	10291.86
736.223	10244.03
736.552	10173.6
736.882	10167.85
737.212	10140.97
737.541	10197.26
737.871	10150.31
738.2	10103.01
738.53	9993.67
738.859	9909.08
739.188	9861.09
739.518	9860.7
739.847	9924.95
740.176	9862.09
740.505	9865.81
740.834	9835.76
741.163	9765.63
741.492	9697.12
741.821	9639.99
742.15	9570.11
742.478	9622.58
742.807	9572.14
743.136	9544.09
743.464	9483.8
743.793	9474.01
744.121	9539.51
744.449	9572.7
744.778	9583.09
745.106	9552.76
745.434	9399.65
745.762	9304.23
746.09	9310.09
746.418	9347.38
746.746	9346.47
747.074	9365.5
747.402	9381.01
747.73	9336.36
748.057	9354.45
748.385	9277.99
748.712	9235.1
749.04	9224.65
749.367	9248.84
749.695	9218.85
750.022	9185.53
750.349	9212.67
750.677	9258.53
751.004	9244.27
751.331	9246.87
751.658	9250.4
751.985	9127.32
752.312	8955.58
752.639	8964.88
752.966	9048.61
753.292	8995.48
753.619	9015.71
753.946	9008.22
754.272	8990.7
754.599	8990.55
754.925	8919.45
755.251	8920.29
755.578	8982.07
755.904	8937.03
756.23	8920.29
756.556	8994.8
756.882	9012.4
757.208	8887.9
757.534	8865.49
757.86	8857.93
758.186	8891.58
758.512	8889.53
758.838	8940.28
759.163	8911.18
759.489	8851.59
759.814	8749.5
760.14	8741.11
760.465	8734.17
760.791	8650.46
761.116	8574.97
761.441	8523.28
761.766	8589.33
762.092	8561.54
762.417	8436.27
762.742	8414.23
763.066	8377.43
763.391	8420.55
763.716	8462.26
764.041	8454.72
764.366	8407.45
764.69	8309.6
765.015	8348.78
765.339	8378.48
765.664	8391.81
765.988	8439.95
766.312	8399.06
766.637	8283.64
766.961	8270.85
767.285	8236.85
767.609	8171.35
767.933	8106.61
768.257	8153.34
768.581	8153.58
768.905	8242.32
769.229	8218.19
769.552	8249.1
769.876	8229
770.2	8170.22
770.523	8138.84
770.847	8024.98
771.17	8023.79
771.493	8024.21
771.817	8047.99
772.14	7918.82
772.463	7783.06
772.786	7759.08
773.109	7737.44
773.432	7824.05
773.755	7754.28
774.078	7737.51
774.401	7750.48
774.724	7719.57
775.046	7735.92
775.369	7660.13
775.692	7587.04
776.014	7515.65
776.336	7473.54
776.659	7467.38
776.981	7460.24
777.303	7425.2
777.626	7400.02
777.948	7457.03
778.27	7426.19
778.592	7393.64
778.914	7408.31
779.236	7389.02
779.557	7373.49
779.879	7445.75
780.201	7482.77
780.523	7533.05
780.844	7490.86
781.166	7498.01
781.487	7495.12
781.809	7444.78
782.13	7487.77
782.451	7495.84
782.772	7525.36
783.094	7484.13
783.415	7538.2
783.736	7523.81
784.057	7590.2
784.378	7622.68
784.698	7533.7
785.019	7517.04
785.34	7410.38
785.661	7411.2
785.981	7513.5
786.302	7518.02
786.622	7541.35
786.943	7568.32
787.263	7522.46
787.583	7498.62
787.903	7491.46
788.224	7469.59
788.544	7500.55
788.864	7477.52
789.184	7561.45
789.504	7537.46
789.824	7549.16
790.143	7611.43
790.463	7599.07
790.783	7556.45
791.102	7560.87
791.422	7655.21
791.741	7639.91
792.061	7594.56
792.38	7623.43
792.699	7501.17
793.019	7500.22
793.338	7509.77
793.657	7501.38
793.976	7499.24
794.295	7486.65
794.614	7468.7
794.933	7416.73
795.252	7420.59
795.57	7412.84
795.889	7461.57
796.208	7504.98
796.526	7458.2
796.845	7437.84
797.163	7328.37
797.482	7319.87
797.8	7370.22
798.118	7316.32
798.436	7313.82
798.754	7327.88
799.073	7300.36
799.391	7302.75
799.708	7324.26
800.026	7328.68
800.344	7359.52
800.662	7333.74
800.98	7318.62
801.297	7279.1
801.615	7304.08
801.932	7286.36
802.25	7233.67
802.567	7161.36
802.884	7161.27
803.202	7170.85
803.519	7157.6
803.836	7167.95
804.153	7169.37
804.47	7169.95
804.787	7079.89
805.104	7047.12
805.421	7040.08
805.737	7064.31
806.054	7023.8
806.371	7024.95
806.687	7038.56
807.004	7014.32
807.32	7000.02
807.637	6981.32
807.953	6985.81
808.269	6980.38
808.585	6952.42
808.902	6853.68
809.218	6837.81
809.534	6808.43
809.85	6755.49
810.165	6726.11
810.481	6738.85
810.797	6632.31
811.113	6632.73
811.428	6640.43
811.744	6679.12
812.059	6728.94
812.375	6666.65
812.69	6651.6
813.006	6583.92
813.321	6573.99
813.636	6515.28
813.951	6510.48
814.266	6512.44
814.581	6488.99
814.896	6431.36
815.211	6352.62
815.526	6326.34
815.841	6342.16
816.155	6397.25
816.47	6340.31
816.784	6380.06
817.099	6290.47
817.413	6209.3
817.728	6276.2
818.042	6269.21
818.356	6281.88
818.67	6227.76
818.985	6237.62
819.299	6194.89
819.613	6197.46
819.926	6142.3
820.24	6111.84
820.554	6128.04
820.868	6125.15
821.182	6047.99
821.495	6047.38
821.809	6009.08
822.122	5994.62
822.436	5980.66
822.749	5990.26
823.062	5998.16
823.376	5995.42
823.689	5983.2
824.002	5948.43
824.315	5898.03
824.628	5911.04
824.941	5914.95
825.254	5906.03
825.566	5843.65
825.879	5840.58
826.192	5792.02
826.504	5767.91
826.817	5780.68
827.129	5803.3
827.442	5713.24
827.754	5689.84
828.066	5660.81
828.379	5595.44
828.691	5625.57
829.003	5639.28
829.315	5676.89
829.627	5687.86
829.939	5638.79
830.251	5577.09
830.562	5499.18
830.874	5503.81
831.186	5508.17
831.497	5560.66
831.809	5541.96
832.12	5521.96
832.432	5473.34
832.743	5473.84
833.054	5470.76
833.365	5414.59
833.676	5375.26
833.988	5355.59
834.299	5323.85
834.61	5281.96
834.92	5263.94
835.231	5300.16
835.542	5281.9
835.853	5259.3
836.163	5234.84
836.474	5179.94
836.784	5140.72
837.095	5117.32
837.405	5131.34
837.715	5173.45
838.026	5184.78
838.336	5135.33
838.646	5098.34
838.956	5045.36
839.266	5058.51
839.576	5043.95
839.886	5062.03
840.195	5057.88
840.505	4988.36
840.815	5000.56
841.124	5004.35
841.434	4992.46
841.743	4961.54
842.053	4954.5
842.362	4949.98
842.671	4943.69
842.981	4923.6
843.29	4829.4
843.599	4808.75
843.908	4794.21
844.217	4761.84
844.526	4777.35
844.835	4783.59
845.143	4790.98
845.452	4743.31
845.761	4732.38
846.069	4658.02
846.378	4665.61
846.686	4616.75
846.995	4603.12
847.303	4587.01
847.611	4594.09
847.919	4581.16
848.227	4547.32
848.535	4497.67
848.843	4494.26
849.151	4436.4
849.459	4439.31
849.767	4437.58
850.075	4430.93
850.382	4396.1
850.69	4369.15
850.998	4330.85
851.305	4356.36
851.612	4414.47
851.92	4430.28
852.227	4419.33
852.534	4383.15
852.841	4351.92
853.148	4335.86
853.455	4347.77
853.762	4323.55
854.069	4349.18
854.376	4339.48
854.683	4300.32
854.99	4258.1
855.296	4211.59
855.603	4144.05
855.909	4126.48
856.216	4101.16
856.522	4078
856.828	4053.46
857.135	4044.51
857.441	4038.09
857.747	3985.71
858.053	3955.31
858.359	3925.55
858.665	3933.39
858.971	3926.6
859.276	3929.09
859.582	3903.84
859.888	3878.26
860.193	3855.08
860.499	3849.38
860.804	3849.33
861.11	3853.99
861.415	3871.27
861.72	3834.29
862.026	3801.38
862.331	3781.06
862.636	3760.76
862.941	3733.84
863.246	3730.74
863.551	3741.65
863.855	3723.45
864.16	3717.94
864.465	3663.43
864.769	3633.09
865.074	3619.08
865.378	3620.83
865.683	3597.85
865.987	3595.42
866.291	3549.22
866.596	3557.58
866.9	3532.97
867.204	3571.76
867.508	3552.53
867.812	3551.41
868.116	3549.9
868.42	3525.73
868.723	3506.69
869.027	3504.01
869.331	3461.08
869.634	3442.22
869.938	3400.82
870.241	3391.64
870.544	3374.25
870.848	3375.49
871.151	3387.92
871.454	3362.09
871.757	3313.46
872.06	3293.23
872.363	3266.51
872.666	3250.64
872.969	3248.05
873.272	3254.93
873.574	3251.91
873.877	3240.75
874.18	3207.72
874.482	3158.91
874.785	3140.09
875.087	3110.95
875.389	3123.71
875.692	3134.2
875.994	3135.02
876.296	3119.08
876.598	3097.05
876.9	3056.32
877.202	3030.48
877.504	3017.92
877.805	3025.94
878.107	3024.56
878.409	3001.46
878.71	3022.28
879.012	3012.56
879.313	2954.97
879.615	2926.41
879.916	2887.86
880.217	2879.74
880.518	2890.49
880.82	2894.39
881.121	2884.65
881.422	2877.26
881.723	2847.64
882.023	2815.44
882.324	2789.11
882.625	2776.36
882.926	2791
883.226	2817.46
883.527	2808.33
883.827	2797.16
884.128	2769.59
884.428	2750.15
884.728	2706.35
885.028	2685.42
885.328	2663.2
885.629	2648.04
885.929	2656.95
886.228	2647.13
886.528	2619.08
886.828	2591.54
887.128	2577.1
887.427	2552.92
887.727	2546.18
888.027	2551.84
888.326	2559.39
888.625	2552.61
888.925	2514.88
889.224	2525.33
889.523	2503.78
889.822	2486.99
890.121	2461.51
890.42	2435.61
890.719	2436.05
891.018	2425.99
891.317	2436.89
891.616	2441.03
891.914	2423.1
892.213	2399.43
892.512	2366.79
892.81	2354.74
893.108	2363.09
893.407	2370.2
893.705	2386.41
894.003	2390.74
894.301	2376.31
894.599	2375.31
894.897	2366.26
895.195	2351.99
895.493	2337.23
895.791	2344.46
896.089	2340.05
896.386	2331.98
896.684	2347.54
896.981	2346.31
897.279	2355.2
897.576	2370.98
897.874	2343.42
898.171	2353.73
898.468	2357.23
898.765	2363.08
899.062	2376.87
899.359	2365.58
899.656	2360.63
899.953	2353.91
900.25	2365.37
900.547	2336.95
900.843	2307.44
901.14	2301.75
901.436	2318.17
901.733	2334.2
902.029	2357.41
902.325	2352.07
902.622	2312.25
902.918	2309.79
903.214	2303.61
903.51	2267.67
903.806	2271.45
904.102	2282.69
904.398	2300.99
904.694	2306.92
904.989	2318.11
905.285	2305.21
905.581	2276.12
905.876	2261.02
906.171	2239.24
906.467	2235.57
906.762	2244.34
907.057	2244.87
907.353	2269.09
907.648	2267.11
907.943	2262.43
908.238	2239.56
908.533	2209.7
908.827	2209.57
909.122	2201.08
909.417	2194.65
909.711	2200.07
910.006	2201.87
910.301	2195.91
910.595	2203.8
910.889	2209.59
911.184	2182.25
911.478	2177.77
911.772	2175.29
912.066	2163.68
912.36	2164.79
912.654	2152.44
912.948	2142.46
913.242	2155.1
913.536	2131.44
913.829	2121.77
914.123	2103.16
914.416	2057.06
914.71	2047.95
915.003	2060.47
915.297	2067.65
915.59	2072.08
915.883	2083.4
916.176	2078.29
916.469	2057.71
916.762	2025.12
917.055	1996.03
917.348	1977.31
917.641	1985.39
917.934	1977.06
918.226	1974.89
918.519	1969.25
918.811	1968.29
919.104	1959.46
919.396	1932.59
919.689	1902.46
919.981	1880.18
920.273	1861.38
920.565	1855.4
920.857	1842.9
921.149	1843.39
921.441	1851.53
921.733	1857.73
922.025	1839.7
922.316	1816.32
922.608	1807.2
922.9	1790.45
923.191	1789.87
923.483	1798.3
923.774	1778.92
924.065	1763.38
924.357	1747.69
924.648	1733.67
924.939	1725.65
925.23	1709.85
925.521	1694.92
925.812	1684.91
926.102	1678.77
926.393	1682.96
926.684	1688.91
926.975	1685.33
927.265	1674.15
927.556	1668.99
927.846	1640.8
928.136	1620.35
928.427	1605.62
928.717	1592.35
929.007	1585.19
929.297	1567.65
929.587	1553.32
929.877	1558.04
930.167	1563.38
930.457	1563.9
930.746	1546.56
931.036	1534.19
931.325	1522.4
931.615	1510.01
931.904	1506.63
932.194	1486.3
932.483	1478.38
932.772	1475.76
933.062	1473.75
933.351	1466
933.64	1449.6
933.929	1437.58
934.218	1410.6
934.506	1396.79
934.795	1387.88
935.084	1387.08
935.372	1378.94
935.661	1371.19
935.949	1366.32
936.238	1366
936.526	1351.16
936.815	1346.36
937.103	1339.96
937.391	1332.07
937.679	1325.87
937.967	1324.29
938.255	1319.05
938.543	1319.06
938.831	1307.64
939.118	1300.24
939.406	1287.14
939.693	1267.69
939.981	1255.4
940.268	1253.15
940.556	1244.61
940.843	1241.98
941.13	1243.61
941.418	1249
941.705	1241.55
941.992	1236.06
942.279	1222.43
942.566	1206.89
942.852	1184.82
943.139	1171.25
943.426	1156.2
943.712	1149.65
943.999	1143.82
944.285	1144.17
944.572	1142.8
944.858	1143.38
945.144	1145.1
945.431	1135.6
945.717	1127.63
946.003	1117.27
946.289	1101.07
946.575	1092.93
946.861	1087.45
947.146	1090.12
947.432	1087.88
947.718	1085.37
948.003	1080.46
948.289	1073.66
948.574	1060.65
948.86	1049.31
949.145	1041.02
949.43	1032.14
949.715	1028.63
950	1021.09
950.285	1017.95
950.57	1019.43
950.855	1014.22
951.14	1004.04
951.425	997.3
951.709	993.26
951.994	980.54
952.278	977.52
952.563	965.35
952.847	955.31
953.132	949.59
953.416	944.01
953.7	941.73
953.984	937.48
954.268	934.87
954.552	927.95
954.836	924.15
955.12	916.64
955.404	912.96
955.687	899.12
955.971	894.45
956.254	890.94
956.538	892.29
956.821	890.65
957.105	886.09
957.388	888.35
957.671	877.2
957.954	872.5
958.237	861.38
958.52	854.14
958.803	846.67
959.086	837.46
959.369	830.85
959.652	824.17
959.934	822.01
960.217	820.59
960.499	820.06
960.782	815.54
961.064	809.05
961.346	806.9
961.629	795.72
961.911	786.07
962.193	780.11
962.475	774.4
962.757	774.32
963.039	774.37
963.32	771.24
963.602	766.11
963.884	763.48
964.165	758.34
964.447	757.08
964.728	751.27
965.01	745.43
965.291	739.21
965.572	732.96
965.853	732.27
966.134	727.71
966.415	724.43
966.696	728.04
966.977	719.02
967.258	714.19
967.539	706.68
967.819	700.41
968.1	695.33
968.38	686.28
968.661	681.55
968.941	680.47
969.222	678.42
969.502	675.74
969.782	673.15
970.062	672.05
970.342	669.2
970.622	664.01
970.902	659.56
971.182	653.01
971.462	644.14
971.741	638.64
972.021	633.81
972.3	628.09
972.58	626.56
972.859	625.93
973.138	625.76
973.418	627.53
973.697	624.14
973.976	622.7
974.255	618.36
974.534	618.46
974.813	615.24
975.092	610.78
975.37	604.6
975.649	602.01
975.928	598.41
976.206	594.59
976.485	593.66
976.763	590.36
977.041	587.8
977.32	581.36
977.598	574.14
977.876	573.35
978.154	568.29
978.432	564.19
978.71	561.57
978.988	560.33
979.265	560.42
979.543	556.48
979.821	552.74
980.098	553.33
980.376	551.87
980.653	549.03
980.93	546.01
981.208	541.11
981.485	539.05
981.762	534.95
982.039	533.39
982.316	529.63
982.593	526.33
982.87	523.99
983.146	520.07
983.423	516.7
983.7	515.56
983.976	510.94
984.253	508.7
984.529	507.78
984.805	503.21
985.082	502.4
985.358	498.13
985.634	497.07
985.91	498.17
986.186	496.29
986.462	494.41
986.738	490.76
987.013	489.22
987.289	487.67
987.565	483.35
987.84	481.84
988.116	477.41
988.391	475.98
988.666	472.82
988.942	472.75
989.217	471.03
989.492	469.58
989.767	465.95
990.042	464.31
990.317	461.65
990.592	461.96
990.866	459.4
991.141	459.27
991.416	456.27
991.69	455.13
991.964	453.28
992.239	450.39
992.513	451.69
992.787	451.09
993.062	447.57
993.336	446.04
993.61	443.47
993.884	441.97
994.158	440.08
994.431	437.98
994.705	434.73
994.979	432.82
995.252	434.34
995.526	429.81
995.799	428.13
996.073	426.62
996.346	427.47
996.619	423.49
996.892	422.98
997.165	421.51
997.438	421.16
997.711	420.71
997.984	418.35
998.257	417.06
998.53	416.01
998.802	413.41
999.075	410.91
999.347	409.81
999.62	409.17
999.892	408.86
1000.165	407.51
1000.437	405.02
1000.709	407.14
1000.981	405.93
1001.253	401.81
1001.525	402.97
1001.797	400.83
1002.068	399.88
1002.34	396.76
1002.612	398.14
1002.883	394.08
1003.155	394.48
1003.426	394.75
1003.698	391.56
1003.969	391.24
1004.24	390.33
1004.511	390.14
1004.782	387.96
1005.053	388.07
1005.324	386.23
1005.595	386.64
1005.866	385.9
1006.136	382.48
1006.407	384.26
1006.678	380.68
1006.948	380.81
1007.218	379.84
1007.489	381.86
1007.759	379.04
1008.029	378.27
1008.299	377.96
1008.569	378.17
1008.839	377.83
1009.109	376.44
1009.379	374.15
1009.649	374.97
1009.918	373.07
1010.188	373.76
1010.458	372.38
1010.727	371.21
1010.996	370.2
1011.266	372.05
1011.535	370.22
1011.804	370.18
1012.073	368.78
1012.342	368.38
1012.611	365.48
1012.88	366.15
1013.149	365.95
1013.417	367.68
1013.686	366.72
1013.955	365.77
1014.223	364.36
1014.492	364.45
1014.76	364.42
1015.028	361.64
1015.296	362.2
1015.565	363.29
1015.833	362.87
1016.101	361.09
1016.368	360.98
1016.636	360.59
1016.904	360.53
1017.172	359.54
1017.439	357.93
1017.707	356.82
1017.974	356.56
1018.242	358.63
1018.509	356.98
1018.776	359.02
1019.044	357.12
1019.311	358.14
1019.578	353.98
1019.845	356.85
1020.112	356.49
1020.378	356.49
1020.645	356.49
