Data from 190524_Kr_34K_dark_FLMS138901_15-54-32-722.txt Node
Date: Fri May 24 15:54:32 EDT 2019
User: pSAM
Spectrometer: FLMS13890
Trigger mode: 0
Integration Time (sec): 5.000000E-3
Scans to average: 1000
Electric dark correction enabled: true
Nonlinearity correction enabled: false
Boxcar width: 0
XAxis mode: Wavelengths
Number of Pixels in Spectrum: 2048
>>>>>Begin Spectral Data<<<<<
342.097	-52.31
342.483	-52.31
342.868	-52.31
343.254	-96.11
343.639	-98.79
344.025	-97.51
344.41	-96.58
344.796	-87.76
345.181	-77.98
345.567	-66.05
345.952	-51.86
346.337	-35.72
346.722	-16.91
347.107	-0.42
347.493	18.55
347.878	36.44
348.263	55.67
348.648	75.75
349.033	95.57
349.418	115.7
349.802	133.13
350.187	152.55
350.572	170.14
350.957	186.21
351.342	202.43
351.726	217.9
352.111	232.34
352.495	248.31
352.88	258.59
353.264	270.47
353.649	282.75
354.033	291.65
354.418	299.84
354.802	309.01
355.186	315.93
355.57	320.31
355.955	328.26
356.339	333.87
356.723	334.58
357.107	338.19
357.491	337.66
357.875	342.86
358.259	343.5
358.643	343.95
359.026	345.3
359.41	344.77
359.794	343.55
360.178	342.64
360.561	341.88
360.945	342.88
361.329	341.18
361.712	339.74
362.096	338.12
362.479	335.36
362.862	334.78
363.246	331.43
363.629	331.29
364.012	329.43
364.396	327.44
364.779	326.44
365.162	324.28
365.545	323.41
365.928	321.14
366.311	321.72
366.694	318.79
367.077	319.49
367.46	317.51
367.843	315.19
368.226	314.82
368.608	315.54
368.991	315.73
369.374	315.13
369.756	314.72
370.139	312.45
370.521	313.26
370.904	313.1
371.286	312.66
371.669	313.06
372.051	313.4
372.433	315.29
372.816	313.98
373.198	314.1
373.58	314.2
373.962	315.34
374.344	315.56
374.726	316.34
375.108	315.65
375.49	316.01
375.872	317.92
376.254	318.79
376.636	316.65
377.018	316.98
377.399	318.56
377.781	321.32
378.163	321.44
378.544	320.6
378.926	321.15
379.307	321.57
379.689	322.07
380.07	321.67
380.452	323.94
380.833	326.95
381.214	323.85
381.596	323.75
381.977	323.8
382.358	325.8
382.739	327.44
383.12	326.29
383.501	327.44
383.882	329.05
384.263	329.76
384.644	328.22
385.025	329.47
385.406	329.48
385.787	329.91
386.167	329.56
386.548	330.26
386.929	330.84
387.309	329.54
387.69	332.27
388.07	329.49
388.451	330.88
388.831	331.55
389.211	333.53
389.592	333.13
389.972	333.78
390.352	333.73
390.733	335.09
391.113	333.8
391.493	337.42
391.873	336.31
392.253	333.79
392.633	336.29
393.013	336.63
393.393	336.72
393.772	336.42
394.152	335.41
394.532	336.34
394.912	336.4
395.291	336.57
395.671	336.15
396.05	338.38
396.43	337.27
396.809	338.39
397.189	338.82
397.568	338.91
397.948	339.02
398.327	338.64
398.706	340.2
399.085	340.41
399.465	340
399.844	341.1
400.223	340.52
400.602	341.08
400.981	340.64
401.36	341.37
401.739	341.94
402.117	345.26
402.496	344.09
402.875	342.84
403.254	342.21
403.632	342.73
404.011	344.93
404.39	343.82
404.768	343.74
405.147	344.18
405.525	346.5
405.903	346.07
406.282	344.19
406.66	347.06
407.038	345.64
407.417	346.5
407.795	346.19
408.173	347.41
408.551	345.79
408.929	347.13
409.307	345.98
409.685	347.34
410.063	346.97
410.441	346.81
410.818	348.83
411.196	348.15
411.574	348.14
411.952	348.81
412.329	348.76
412.707	349.95
413.084	347.72
413.462	350.65
413.839	349.61
414.217	348.74
414.594	349.13
414.971	351.58
415.349	351.21
415.726	351.05
416.103	351.98
416.48	352.58
416.857	352.21
417.234	353.21
417.611	350.55
417.988	353.53
418.365	353.83
418.742	355.34
419.119	353.04
419.495	354.53
419.872	354.68
420.249	359
420.625	353.99
421.002	352.28
421.379	355.07
421.755	354.82
422.131	353.5
422.508	354
422.884	356.78
423.26	356.56
423.637	355.28
424.013	356.78
424.389	356.85
424.765	357.71
425.141	356.66
425.517	357.13
425.893	358.25
426.269	358.98
426.645	357.78
427.021	356.11
427.397	357.91
427.772	357.71
428.148	358.51
428.524	358.19
428.899	357.01
429.275	358.52
429.651	358.3
430.026	359.65
430.401	359.58
430.777	359.37
431.152	358.93
431.527	359.95
431.903	359.73
432.278	359.24
432.653	358.49
433.028	361.25
433.403	359.6
433.778	360.18
434.153	359.72
434.528	361.77
434.903	362.87
435.278	365.46
435.653	365.41
436.027	364.72
436.402	364.66
436.777	363.24
437.151	362.1
437.526	361.35
437.9	361.8
438.275	362.9
438.649	365.02
439.023	361.64
439.398	362.33
439.772	362.92
440.146	363.27
440.52	362.36
440.895	364.39
441.269	363.56
441.643	363.2
442.017	364.56
442.391	363.52
442.765	364.06
443.138	364.48
443.512	364.54
443.886	364.6
444.26	364.38
444.633	365.05
445.007	365.56
445.38	364.1
445.754	365.97
446.127	364
446.501	365.11
446.874	365.34
447.248	365.57
447.621	366.59
447.994	365.89
448.367	364.55
448.741	366.15
449.114	365.04
449.487	365.57
449.86	365.73
450.233	366.25
450.606	365.63
450.978	366.86
451.351	370.14
451.724	368.17
452.097	369.08
452.469	368.37
452.842	367.36
453.215	365.65
453.587	367.9
453.96	368.45
454.332	367.19
454.704	368.16
455.077	367.56
455.449	368.9
455.821	368.86
456.194	369.45
456.566	368.7
456.938	368.74
457.31	369.32
457.682	368.29
458.054	367.28
458.426	366.6
458.798	367.65
459.17	368.43
459.541	368.4
459.913	368.71
460.285	368.22
460.656	368.17
461.028	367.45
461.399	369
461.771	367.73
462.142	368.25
462.514	369.89
462.885	369.31
463.256	368.23
463.628	369.25
463.999	370.03
464.37	369.55
464.741	369.73
465.112	368.07
465.483	369.6
465.854	370.34
466.225	369.3
466.596	368.05
466.967	369.09
467.338	370.09
467.708	369.05
468.079	372.25
468.45	371.62
468.82	372.19
469.191	369.98
469.561	372.03
469.932	369.26
470.302	368.7
470.673	369.75
471.043	368.9
471.413	370.75
471.783	369.74
472.154	371.28
472.524	372.68
472.894	370.58
473.264	370.47
473.634	371.8
474.004	369.91
474.374	369.95
474.743	368.65
475.113	370.68
475.483	370.21
475.853	372.24
476.222	370.33
476.592	372.82
476.961	369.92
477.331	372.3
477.7	369.72
478.07	371.37
478.439	371.27
478.808	370.59
479.178	370.97
479.547	371.42
479.916	370.61
480.285	372.82
480.654	372.77
481.023	372.25
481.392	370.68
481.761	374.2
482.13	370.27
482.499	372.75
482.867	370.7
483.236	373.05
483.605	371.85
483.973	372.08
484.342	371.02
484.71	372.82
485.079	375.54
485.447	374.52
485.816	374.61
486.184	373.79
486.552	374.01
486.921	374.09
487.289	372.3
487.657	373.4
488.025	374.82
488.393	374.24
488.761	374.85
489.129	373.85
489.497	372.55
489.865	372.76
490.233	373.53
490.6	374.15
490.968	372.98
491.336	374.4
491.703	373.8
492.071	372.47
492.438	372.56
492.806	372.53
493.173	371.09
493.541	375.01
493.908	374
494.275	372.94
494.642	372.24
495.01	373.7
495.377	372.98
495.744	372.27
496.111	373.45
496.478	374.38
496.845	373.65
497.211	373.27
497.578	373.52
497.945	373.62
498.312	372.73
498.678	371.31
499.045	371.08
499.412	372.26
499.778	374.21
500.145	371.42
500.511	370.79
500.878	371.75
501.244	373.52
501.61	371.61
501.976	371.41
502.343	372.74
502.709	371.84
503.075	372.46
503.441	372.94
503.807	372.93
504.173	371.41
504.539	371.49
504.905	372.47
505.27	371.7
505.636	372.46
506.002	370.14
506.367	370.86
506.733	371.07
507.099	370.46
507.464	370.85
507.829	371.99
508.195	368.74
508.56	370.88
508.926	371.4
509.291	370.57
509.656	369.71
510.021	370.31
510.386	371.26
510.751	371.72
511.116	374.04
511.481	370.43
511.846	373.32
512.211	374.04
512.576	372.3
512.941	373.31
513.305	373.05
513.67	369.03
514.035	372.76
514.399	372.89
514.764	370.7
515.128	370.77
515.493	370.85
515.857	369.92
516.221	371.54
516.585	371.14
516.95	369.72
517.314	372.55
517.678	370.56
518.042	372.8
518.406	369.85
518.77	370.96
519.134	371.9
519.498	371.5
519.862	370.74
520.225	370
520.589	368.98
520.953	371.54
521.316	370.67
521.68	370.25
522.043	370.68
522.407	372.62
522.77	370.83
523.134	368.35
523.497	369.49
523.86	369.72
524.223	369.06
524.587	371.33
524.95	371.06
525.313	369.39
525.676	371.15
526.039	370.42
526.402	370.7
526.765	369.68
527.127	371.51
527.49	371.75
527.853	369.16
528.215	369.96
528.578	369.46
528.941	368.47
529.303	368.64
529.666	369.88
530.028	370.94
530.39	370.64
530.753	369.53
531.115	370.18
531.477	370.11
531.839	370.19
532.201	369.31
532.564	370.31
532.926	370
533.287	370.45
533.649	370.71
534.011	371.28
534.373	368.73
534.735	368.68
535.097	368.64
535.458	369.83
535.82	369.48
536.181	371.14
536.543	370
536.904	370.28
537.266	372.86
537.627	370.25
537.988	372.44
538.35	371.4
538.711	372.5
539.072	372.57
539.433	373.71
539.794	374.55
540.155	371.76
540.516	376.39
540.877	376.47
541.238	378.19
541.599	384.05
541.959	385.76
542.32	387.67
542.681	390.45
543.041	391.01
543.402	389.08
543.762	388.67
544.123	390.48
544.483	390.79
544.844	386.54
545.204	389.25
545.564	391.8
545.924	391.09
546.284	387.71
546.644	381.4
547.004	377.28
547.364	375.31
547.724	372.36
548.084	374.97
548.444	375.57
548.804	376.29
549.164	374.09
549.523	374.7
549.883	375.22
550.242	373.07
550.602	372.06
550.961	373.08
551.321	373.92
551.68	372.39
552.04	373.86
552.399	374.12
552.758	373.84
553.117	372.9
553.476	371.88
553.835	369.4
554.194	370.44
554.553	369.7
554.912	367.57
555.271	367.73
555.63	370.08
555.989	370.17
556.347	368.21
556.706	368.63
557.065	369.07
557.423	369.2
557.782	368.83
558.14	368.07
558.499	367.96
558.857	369.67
559.215	367.99
559.573	368.08
559.932	367.25
560.29	369.73
560.648	365.58
561.006	366.3
561.364	367.56
561.722	367.96
562.08	367.33
562.438	367.05
562.795	366.34
563.153	368.53
563.511	367.37
563.868	366.45
564.226	367.24
564.583	366.82
564.941	367.15
565.298	368.18
565.656	369.28
566.013	368.49
566.37	367.29
566.727	369.91
567.085	367.24
567.442	369.2
567.799	366.48
568.156	367.67
568.513	366.69
568.87	366.96
569.226	365.08
569.583	366.35
569.94	366.4
570.297	368.26
570.653	366.61
571.01	368.22
571.366	365.37
571.723	368.79
572.079	368.43
572.436	367.57
572.792	366.51
573.148	367.16
573.505	368.25
573.861	367.79
574.217	368.09
574.573	367.52
574.929	368.86
575.285	367.62
575.641	367.6
575.997	368.91
576.352	369.54
576.708	369.09
577.064	370.11
577.42	367.61
577.775	369.8
578.131	368.21
578.486	370.45
578.842	370.62
579.197	369.5
579.552	369.74
579.908	370.36
580.263	371.84
580.618	368.27
580.973	369.53
581.328	369.44
581.683	368.65
582.038	369.48
582.393	367.83
582.748	370.46
583.103	370.25
583.458	370.65
583.812	370.62
584.167	370.1
584.522	370.91
584.876	369.5
585.231	370.05
585.585	367.36
585.939	369.35
586.294	370.11
586.648	369.6
587.002	371.9
587.356	372.5
587.711	370.26
588.065	371.22
588.419	369.68
588.773	371.07
589.127	370.41
589.48	370.7
589.834	368.83
590.188	368.63
590.542	368.92
590.895	369.75
591.249	369.16
591.603	367.83
591.956	370.33
592.309	368.11
592.663	368
593.016	369.08
593.369	368.93
593.723	367.76
594.076	366.14
594.429	368.37
594.782	367.04
595.135	367.9
595.488	367.48
595.841	366.9
596.194	365.94
596.547	367.23
596.899	363.98
597.252	367.85
597.605	364.98
597.957	367.53
598.31	365.02
598.662	368.65
599.015	366.86
599.367	365.58
599.719	366.11
600.072	366.99
600.424	367.14
600.776	364.13
601.128	367.61
601.48	366.73
601.832	363.88
602.184	363.5
602.536	364.91
602.888	364.77
603.24	366.84
603.592	366.02
603.943	365.31
604.295	365.73
604.646	364.69
604.998	364.42
605.349	365.38
605.701	366.99
606.052	364.92
606.404	364.74
606.755	365.64
607.106	362.53
607.457	364.96
607.808	366.8
608.159	365.14
608.51	368.25
608.861	366.57
609.212	366.8
609.563	369.02
609.914	369.45
610.265	373.44
610.615	381.95
610.966	387.29
611.316	393.32
611.667	391.52
612.017	387.62
612.368	383.76
612.718	378.41
613.068	376.34
613.419	374.22
613.769	371.28
614.119	373.59
614.469	373.13
614.819	370.99
615.169	370.1
615.519	368.17
615.869	367.43
616.219	368.25
616.568	367.89
616.918	367.97
617.268	369.12
617.617	366.99
617.967	364.13
618.316	367.96
618.666	367.92
619.015	366.26
619.364	364.95
619.714	366.27
620.063	366.91
620.412	367.38
620.761	365.3
621.11	366.95
621.459	367.06
621.808	367.92
622.157	367.85
622.506	366.48
622.855	365.88
623.203	367.15
623.552	364.73
623.901	364.54
624.249	363.3
624.598	364.42
624.946	363.87
625.295	365.8
625.643	364.76
625.991	364.76
626.34	363.31
626.688	364.48
627.036	363.92
627.384	367.27
627.732	365.91
628.08	366.51
628.428	365.14
628.776	365.17
629.124	364.94
629.471	365.58
629.819	365.08
630.167	366.82
630.514	365.62
630.862	366.3
631.209	365.6
631.557	366.31
631.904	366.76
632.251	364.17
632.599	363.2
632.946	363.76
633.293	362.41
633.64	362.78
633.987	364.19
634.334	363.1
634.681	363.01
635.028	363.51
635.375	362.59
635.722	363.86
636.068	363.39
636.415	362.47
636.762	363.05
637.108	364.59
637.455	362.7
637.801	364.78
638.147	365.36
638.494	362.68
638.84	361.06
639.186	362.86
639.532	362.09
639.878	362.06
640.225	363.57
640.571	363.69
640.916	362.83
641.262	362.24
641.608	362.19
641.954	362.09
642.3	363.01
642.645	361.75
642.991	362.63
643.337	363.34
643.682	363.86
644.028	362.56
644.373	362.01
644.718	361.85
645.064	363.36
645.409	361.94
645.754	362.99
646.099	363.89
646.444	362.03
646.789	360.83
647.134	362.37
647.479	363.43
647.824	362.21
648.169	363.4
648.513	361.02
648.858	362.59
649.203	361.78
649.547	363.21
649.892	363.31
650.236	361.63
650.581	362.83
650.925	363.82
651.269	362.45
651.613	364.3
651.958	361.92
652.302	363.44
652.646	363.47
652.99	363.63
653.334	362.56
653.678	361.84
654.022	364.6
654.365	361.9
654.709	362.07
655.053	362.49
655.396	361.38
655.74	360.13
656.083	362.14
656.427	361.22
656.77	360.75
657.114	364.17
657.457	363.29
657.8	362.09
658.143	362.31
658.486	360.47
658.83	359.61
659.173	361.9
659.516	361.21
659.858	360.17
660.201	360.7
660.544	361.2
660.887	361.19
661.229	361.35
661.572	362.83
661.915	362.06
662.257	361.78
662.6	362.41
662.942	360.63
663.284	363
663.627	362.99
663.969	361.75
664.311	362.13
664.653	360.02
664.995	361.39
665.337	361.3
665.679	363.12
666.021	362.34
666.363	360.81
666.705	359.66
667.046	362.76
667.388	361.65
667.73	363.28
668.071	361.98
668.413	360.6
668.754	361.45
669.096	360.7
669.437	361.56
669.778	360.19
670.119	360.9
670.461	361.13
670.802	362.75
671.143	360.19
671.484	360.19
671.825	360.1
672.165	362.36
672.506	360.69
672.847	359.54
673.188	361.38
673.528	360.9
673.869	362.9
674.21	361.65
674.55	361.47
674.89	360.17
675.231	360.17
675.571	361.61
675.911	363.03
676.252	360.73
676.592	361.27
676.932	360.81
677.272	361.2
677.612	361.39
677.952	361.08
678.292	359.6
678.631	362.14
678.971	361.86
679.311	361.74
679.651	361.12
679.99	358.98
680.33	359.12
680.669	359.87
681.009	362.92
681.348	361.62
681.687	359.73
682.026	361.65
682.366	361.38
682.705	361.32
683.044	359.61
683.383	360.68
683.722	359.56
684.061	360.7
684.4	360.9
684.738	360.28
685.077	360.14
685.416	360.59
685.754	361.01
686.093	360.04
686.431	360.71
686.77	360.26
687.108	360.74
687.447	361.68
687.785	361.76
688.123	361.21
688.461	361.59
688.799	361.62
689.137	361.43
689.475	360.28
689.813	359.78
690.151	359.07
690.489	359.99
690.827	359.14
691.164	360.86
691.502	359.43
691.84	358.1
692.177	361.04
692.515	360.07
692.852	360.14
693.189	360.21
693.527	360.2
693.864	361.12
694.201	360.26
694.538	360.66
694.875	358.68
695.212	359.91
695.549	361.08
695.886	359.52
696.223	359.54
696.56	359.92
696.897	358.55
697.233	358.42
697.57	359.96
697.906	359.53
698.243	359.63
698.579	359.78
698.916	360.16
699.252	360.34
699.588	361.75
699.924	359.93
700.261	359.02
700.597	357.92
700.933	360.15
701.269	358.79
701.605	361.24
701.941	358.15
702.276	359.72
702.612	360.13
702.948	360.38
703.283	361.65
703.619	359.54
703.954	359.97
704.29	359.71
704.625	359.82
704.961	360.65
705.296	359.78
705.631	360.7
705.966	360.87
706.301	360.88
706.637	360.37
706.972	360.79
707.306	360.43
707.641	360.57
707.976	360.36
708.311	360.19
708.646	360.89
708.98	360.98
709.315	360.48
709.649	359.5
709.984	361.7
710.318	358.81
710.653	358.93
710.987	359.27
711.321	358.47
711.655	359.59
711.989	358.92
712.324	358.98
712.658	358.59
712.992	361.03
713.325	361.71
713.659	359.86
713.993	358.13
714.327	359.41
714.66	359.86
714.994	360.48
715.328	359.36
715.661	358.21
715.994	359.39
716.328	361.07
716.661	359.52
716.994	358.43
717.328	358.11
717.661	358.37
717.994	358.89
718.327	358.25
718.66	359.19
718.993	359.97
719.325	360.31
719.658	359.95
719.991	357
720.324	360
720.656	359.15
720.989	360.56
721.321	360.01
721.654	357.8
721.986	357.8
722.318	358.08
722.651	360.45
722.983	359.62
723.315	357.17
723.647	358.3
723.979	360.82
724.311	359.24
724.643	360.04
724.975	358.84
725.307	361.52
725.638	359.07
725.97	357.91
726.302	358.9
726.633	358.54
726.965	358.23
727.296	357.48
727.628	359.62
727.959	360.45
728.29	359.78
728.621	357.23
728.952	357.39
729.284	357.78
729.615	358.39
729.945	358.1
730.276	358.27
730.607	359.77
730.938	357.95
731.269	357.85
731.599	359.23
731.93	358.55
732.261	359.17
732.591	358.87
732.922	358.46
733.252	358.49
733.582	357.5
733.912	358.99
734.243	359.3
734.573	357.43
734.903	358.01
735.233	358.15
735.563	358.16
735.893	356.85
736.223	358.05
736.552	357.38
736.882	360.7
737.212	359.42
737.541	358.23
737.871	358.15
738.2	360.18
738.53	358.36
738.859	358.87
739.188	356.91
739.518	358.83
739.847	356.77
740.176	359.76
740.505	359.04
740.834	359.9
741.163	358.45
741.492	356.34
741.821	359.15
742.15	359.26
742.478	358.11
742.807	359.5
743.136	357.52
743.464	355.87
743.793	357.99
744.121	356.35
744.449	358.24
744.778	360.29
745.106	361.22
745.434	357.58
745.762	358.76
746.09	357.92
746.418	357.55
746.746	356.52
747.074	359.86
747.402	357.95
747.73	358.6
748.057	359.75
748.385	357.12
748.712	357.41
749.04	359.61
749.367	358.21
749.695	358.92
750.022	357.35
750.349	357.17
750.677	358.67
751.004	364.44
751.331	357.73
751.658	356.53
751.985	358.52
752.312	357.08
752.639	358.22
752.966	357.55
753.292	357.59
753.619	357.66
753.946	357.29
754.272	354.3
754.599	358.78
754.925	356.87
755.251	358.67
755.578	358.73
755.904	357.94
756.23	358.08
756.556	357.15
756.882	357.8
757.208	358.33
757.534	358.87
757.86	356.34
758.186	356.82
758.512	356.79
758.838	359.1
759.163	357.7
759.489	356.3
759.814	359.1
760.14	359.13
760.465	358.75
760.791	359.17
761.116	356.68
761.441	357.65
761.766	357.69
762.092	355.95
762.417	356.08
762.742	355.33
763.066	357.71
763.391	356.4
763.716	357.48
764.041	357.93
764.366	356.94
764.69	355.67
765.015	357.6
765.339	357.12
765.664	355.86
765.988	357.29
766.312	358.03
766.637	357.74
766.961	358.81
767.285	356.48
767.609	358.98
767.933	356.02
768.257	356.77
768.581	354.98
768.905	356.71
769.229	355.66
769.552	358.32
769.876	357.21
770.2	355.94
770.523	357.98
770.847	357.08
771.17	356.41
771.493	357.23
771.817	358.16
772.14	356.55
772.463	354.06
772.786	354.94
773.109	356.29
773.432	355.95
773.755	357.11
774.078	358.57
774.401	356.52
774.724	356.13
775.046	355.87
775.369	358.51
775.692	355.58
776.014	357.66
776.336	356.88
776.659	354.62
776.981	357.95
777.303	356.97
777.626	357.49
777.948	356.47
778.27	355.55
778.592	356.61
778.914	357.99
779.236	356.36
779.557	357.89
779.879	355.62
780.201	357.78
780.523	356.26
780.844	355.58
781.166	356.13
781.487	356.2
781.809	356
782.13	356.23
782.451	357.84
782.772	356.48
783.094	356.5
783.415	357.43
783.736	356.74
784.057	357.19
784.378	355.38
784.698	356.88
785.019	356.04
785.34	357.1
785.661	356.83
785.981	355.25
786.302	358.21
786.622	355.45
786.943	358.01
787.263	355.39
787.583	357.43
787.903	357.55
788.224	356.49
788.544	356.66
788.864	356.32
789.184	358.07
789.504	357.09
789.824	357.72
790.143	356.81
790.463	356.61
790.783	357.07
791.102	357.66
791.422	353.34
791.741	354.38
792.061	356.11
792.38	353.3
792.699	357.57
793.019	354.83
793.338	355.72
793.657	356.25
793.976	358.03
794.295	355.3
794.614	356.75
794.933	357.96
795.252	355.42
795.57	355.72
795.889	355.43
796.208	357.5
796.526	356.09
796.845	356.66
797.163	355.31
797.482	355.39
797.8	355.2
798.118	356.02
798.436	356.77
798.754	356.58
799.073	355.86
799.391	356.06
799.708	355.71
800.026	356.65
800.344	357.89
800.662	354.34
800.98	355.61
801.297	356.26
801.615	356.66
801.932	354.87
802.25	355.09
802.567	355.23
802.884	357.53
803.202	352.76
803.519	355.79
803.836	355.56
804.153	357.07
804.47	353.63
804.787	355.83
805.104	359.1
805.421	355.2
805.737	355.05
806.054	355.92
806.371	355.55
806.687	354.5
807.004	356.46
807.32	355.96
807.637	353.76
807.953	357.24
808.269	356.8
808.585	354.98
808.902	356.01
809.218	356.66
809.534	355.28
809.85	355.85
810.165	356.92
810.481	355.63
810.797	354.33
811.113	357.53
811.428	356.2
811.744	355.94
812.059	357.96
812.375	354.33
812.69	354.96
813.006	355.12
813.321	354.74
813.636	353.23
813.951	355.69
814.266	355.96
814.581	355.52
814.896	355.49
815.211	355.26
815.526	355.65
815.841	358.16
816.155	355.81
816.47	355.19
816.784	354.7
817.099	355.81
817.413	354.32
817.728	354.2
818.042	356.22
818.356	353.63
818.67	354.85
818.985	354.44
819.299	354.59
819.613	354.68
819.926	355.4
820.24	355.41
820.554	355.4
820.868	354.24
821.182	354.09
821.495	356.44
821.809	354.94
822.122	354.4
822.436	354.24
822.749	356.34
823.062	356.35
823.376	355.2
823.689	354.82
824.002	354.22
824.315	354.7
824.628	354.21
824.941	356.11
825.254	354.58
825.566	355.48
825.879	355.3
826.192	356.24
826.504	353.73
826.817	355.1
827.129	355.13
827.442	353.33
827.754	354.21
828.066	355.25
828.379	354.86
828.691	354.67
829.003	355.52
829.315	356.03
829.627	354.06
829.939	355.04
830.251	355.21
830.562	353.41
830.874	354.1
831.186	355
831.497	354.7
831.809	353.87
832.12	354.23
832.432	356.09
832.743	354.21
833.054	354.82
833.365	354.35
833.676	354.32
833.988	354.93
834.299	354.04
834.61	355.19
834.92	356.05
835.231	353.86
835.542	354.67
835.853	354.78
836.163	354.46
836.474	354.48
836.784	355.38
837.095	355.96
837.405	355.21
837.715	355.05
838.026	357.24
838.336	351.27
838.646	353.13
838.956	354.99
839.266	353.22
839.576	354.65
839.886	352.98
840.195	353.54
840.505	353.83
840.815	353.34
841.124	353.57
841.434	353.25
841.743	352.18
842.053	355.22
842.362	352.85
842.671	354.55
842.981	354.89
843.29	353.19
843.599	352.27
843.908	353.31
844.217	354.24
844.526	354.21
844.835	355.6
845.143	353.48
845.452	355.02
845.761	352.44
846.069	354.18
846.378	353.87
846.686	354.82
846.995	353.91
847.303	353.14
847.611	352.35
847.919	353.4
848.227	352.48
848.535	354.22
848.843	353.85
849.151	353.92
849.459	353.16
849.767	355.51
850.075	354.75
850.382	354.78
850.69	355.06
850.998	354.52
851.305	354.41
851.612	352.61
851.92	355.72
852.227	354.54
852.534	354.72
852.841	353.88
853.148	353.1
853.455	354.57
853.762	353.92
854.069	353.82
854.376	353.59
854.683	353.82
854.99	353.89
855.296	352.89
855.603	352.03
855.909	351.99
856.216	351.41
856.522	353.81
856.828	352.19
857.135	354.62
857.441	353.1
857.747	354.23
858.053	353.11
858.359	354.85
858.665	353.58
858.971	353.33
859.276	352.09
859.582	353.86
859.888	353.56
860.193	352.33
860.499	353.1
860.804	354.55
861.11	353.98
861.415	355.44
861.72	353.5
862.026	351.04
862.331	351.74
862.636	354.12
862.941	351.2
863.246	352.68
863.551	351.16
863.855	353.83
864.16	352.94
864.465	352.15
864.769	353.98
865.074	352.39
865.378	352.36
865.683	353.05
865.987	352.42
866.291	354.63
866.596	353.14
866.9	352.49
867.204	352.11
867.508	350.55
867.812	352.41
868.116	352.65
868.42	353.59
868.723	354.99
869.027	352.47
869.331	354.75
869.634	353.82
869.938	352.96
870.241	352.66
870.544	352.88
870.848	354.94
871.151	351.43
871.454	351.23
871.757	352.17
872.06	352.83
872.363	353.26
872.666	351.93
872.969	352.83
873.272	352.22
873.574	353.6
873.877	354.89
874.18	352.67
874.482	355.31
874.785	353.16
875.087	353.86
875.389	350.67
875.692	353.08
875.994	351.87
876.296	352.29
876.598	353.6
876.9	350.91
877.202	353.61
877.504	352.01
877.805	351.56
878.107	352.39
878.409	353.97
878.71	350.93
879.012	351.97
879.313	353.24
879.615	353.69
879.916	350.96
880.217	353.14
880.518	353.95
880.82	354.48
881.121	352.17
881.422	352.53
881.723	352.82
882.023	352.52
882.324	353.62
882.625	353.99
882.926	353.24
883.226	353.27
883.527	354.45
883.827	352.09
884.128	352.1
884.428	350.74
884.728	352.37
885.028	352.83
885.328	351.82
885.629	353.89
885.929	352.51
886.228	352.54
886.528	353.38
886.828	353.09
887.128	352.18
887.427	354.37
887.727	354.98
888.027	351.25
888.326	353.33
888.625	352.6
888.925	352.19
889.224	352.11
889.523	352.05
889.822	350.8
890.121	352.35
890.42	351.43
890.719	354.25
891.018	349.74
891.317	351.96
891.616	352.78
891.914	350.3
892.213	351.19
892.512	352.13
892.81	352.09
893.108	350.47
893.407	353.6
893.705	351.91
894.003	351.75
894.301	351
894.599	351.46
894.897	352.07
895.195	351.66
895.493	351.15
895.791	353.04
896.089	350.62
896.386	351.39
896.684	352.41
896.981	352.32
897.279	352.26
897.576	350.94
897.874	352.35
898.171	353.63
898.468	351.94
898.765	352.21
899.062	351.58
899.359	349.44
899.656	350.7
899.953	350.94
900.25	349.88
900.547	351.58
900.843	352.6
901.14	352.03
901.436	353.73
901.733	351.75
902.029	350.36
902.325	352.2
902.622	351.45
902.918	351.32
903.214	352.57
903.51	350.15
903.806	351.67
904.102	351.58
904.398	350.88
904.694	352.73
904.989	352.61
905.285	354.5
905.581	351.37
905.876	349.18
906.171	350.84
906.467	352.44
906.762	350.58
907.057	350.3
907.353	352.54
907.648	350.35
907.943	352.92
908.238	351.13
908.533	352.77
908.827	349.84
909.122	351.25
909.417	348.38
909.711	352.35
910.006	351.43
910.301	352.86
910.595	352.57
910.889	353.35
911.184	350.59
911.478	350.06
911.772	349.58
912.066	351.3
912.36	350.45
912.654	349.9
912.948	349.41
913.242	351
913.536	351.14
913.829	351.75
914.123	350.05
914.416	351.7
914.71	351.71
915.003	350.58
915.297	351.15
915.59	350.76
915.883	351.27
916.176	350.97
916.469	351.41
916.762	352.34
917.055	350.82
917.348	350.39
917.641	349.69
917.934	351.25
918.226	351.78
918.519	349.67
918.811	349.86
919.104	351.93
919.396	350.61
919.689	351.06
919.981	350.74
920.273	352.25
920.565	352.58
920.857	350.81
921.149	352.09
921.441	350.14
921.733	352.12
922.025	351.64
922.316	351.62
922.608	352.56
922.9	351.38
923.191	351.29
923.483	350.94
923.774	352.41
924.065	350.69
924.357	351.24
924.648	350.6
924.939	349.86
925.23	350.31
925.521	351.3
925.812	350.04
926.102	351.25
926.393	352.76
926.684	351.31
926.975	350.75
927.265	350.91
927.556	350.75
927.846	349.13
928.136	349.96
928.427	349.91
928.717	352.18
929.007	349.01
929.297	350.92
929.587	352.44
929.877	350.73
930.167	352.8
930.457	352.61
930.746	352.65
931.036	351.47
931.325	350.85
931.615	351.66
931.904	351.74
932.194	350.78
932.483	350.06
932.772	351.77
933.062	353.26
933.351	350.4
933.64	350.99
933.929	349.7
934.218	351.19
934.506	350.47
934.795	352.22
935.084	351.81
935.372	353.23
935.661	351.81
935.949	350.46
936.238	352.31
936.526	350.71
936.815	350.78
937.103	348.76
937.391	349.3
937.679	349.46
937.967	350.25
938.255	351.09
938.543	349.58
938.831	351.52
939.118	352.33
939.406	350.79
939.693	351.27
939.981	350.25
940.268	351.25
940.556	350.55
940.843	351.19
941.13	348.99
941.418	350.26
941.705	351.77
941.992	352.33
942.279	351.02
942.566	351.35
942.852	348.22
943.139	348.83
943.426	349.51
943.712	349.59
943.999	350.07
944.285	350.46
944.572	352.27
944.858	348.72
945.144	348.36
945.431	352.19
945.717	349.67
946.003	349.68
946.289	349.86
946.575	350.23
946.861	350.88
947.146	347.81
947.432	349.52
947.718	346.27
948.003	350.44
948.289	350.24
948.574	349.93
948.86	350.28
949.145	350.64
949.43	352.12
949.715	350.23
950	348.81
950.285	348.89
950.57	348.81
950.855	348.89
951.14	351.23
951.425	351.35
951.709	351.97
951.994	348.03
952.278	349.8
952.563	351.55
952.847	347.92
953.132	349.93
953.416	351.32
953.7	350.25
953.984	350.59
954.268	350.54
954.552	349.52
954.836	350.65
955.12	349.78
955.404	350.83
955.687	350.06
955.971	350.23
956.254	349.84
956.538	349.65
956.821	350.85
957.105	350.82
957.388	349.79
957.671	348.29
957.954	349.9
958.237	350.54
958.52	349.75
958.803	351.24
959.086	348.59
959.369	347.8
959.652	350.67
959.934	350.39
960.217	348.89
960.499	350.6
960.782	349.52
961.064	349.62
961.346	350.21
961.629	350.12
961.911	350.42
962.193	348.57
962.475	349.06
962.757	349.39
963.039	350.97
963.32	350.32
963.602	348.95
963.884	350.05
964.165	348.92
964.447	348.57
964.728	349.3
965.01	347.87
965.291	350.41
965.572	349.23
965.853	350.06
966.134	350.45
966.415	349.73
966.696	348.14
966.977	349.45
967.258	349.46
967.539	349.78
967.819	347.83
968.1	349.06
968.38	348
968.661	349.6
968.941	347.61
969.222	347.5
969.502	348.95
969.782	348.17
970.062	348.68
970.342	347.88
970.622	348.46
970.902	349.85
971.182	348.98
971.462	348.31
971.741	350.25
972.021	348.48
972.3	349.42
972.58	349.42
972.859	348.63
973.138	347
973.418	348.91
973.697	348.28
973.976	348.98
974.255	349.57
974.534	349.48
974.813	348.88
975.092	349.31
975.37	347.49
975.649	349.1
975.928	348.82
976.206	347.74
976.485	350.3
976.763	350.62
977.041	349.75
977.32	349.85
977.598	348.36
977.876	350.22
978.154	346.95
978.432	349.21
978.71	349.89
978.988	349.77
979.265	349.18
979.543	348.04
979.821	348.2
980.098	349.11
980.376	350.83
980.653	348.62
980.93	349.93
981.208	349.54
981.485	348.13
981.762	349.79
982.039	350.16
982.316	350.31
982.593	348.05
982.87	348.54
983.146	349.87
983.423	348.4
983.7	349.25
983.976	349.71
984.253	349.73
984.529	349.26
984.805	347.62
985.082	347.83
985.358	349.59
985.634	349.07
985.91	346.5
986.186	347.06
986.462	350.94
986.738	349.82
987.013	348.45
987.289	350.26
987.565	347.61
987.84	348.36
988.116	345.8
988.391	348.32
988.666	348.22
988.942	347.58
989.217	348.26
989.492	348.39
989.767	348.43
990.042	347.91
990.317	349.24
990.592	348.13
990.866	350.06
991.141	349.22
991.416	347.3
991.69	347.56
991.964	347.79
992.239	348.49
992.513	347.88
992.787	350.2
993.062	348.83
993.336	348.49
993.61	348.18
993.884	347.84
994.158	348.83
994.431	349.6
994.705	348.4
994.979	349.85
995.252	348.95
995.526	349.62
995.799	347.75
996.073	350.12
996.346	347.74
996.619	348.81
996.892	349.46
997.165	348.23
997.438	347.11
997.711	347.53
997.984	346.35
998.257	347.71
998.53	350.48
998.802	347.09
999.075	349.12
999.347	348.33
999.62	346.71
999.892	347.51
1000.165	348.12
1000.437	347.66
1000.709	350.37
1000.981	349.06
1001.253	349.05
1001.525	348.02
1001.797	350.14
1002.068	348.69
1002.34	347.13
1002.612	349.77
1002.883	348.13
1003.155	348.17
1003.426	348.58
1003.698	348.22
1003.969	345.31
1004.24	346.58
1004.511	347.49
1004.782	346.27
1005.053	346.89
1005.324	347.14
1005.595	348.42
1005.866	348.02
1006.136	347.56
1006.407	346.3
1006.678	346.95
1006.948	349.84
1007.218	349.17
1007.489	348.97
1007.759	348.01
1008.029	348.93
1008.299	346.98
1008.569	349.24
1008.839	347.58
1009.109	347.78
1009.379	347.83
1009.649	347.33
1009.918	348.88
1010.188	348.66
1010.458	346.79
1010.727	349.42
1010.996	347.07
1011.266	346.58
1011.535	348.79
1011.804	347.06
1012.073	347.86
1012.342	349.17
1012.611	348.41
1012.88	346.51
1013.149	348.68
1013.417	348.24
1013.686	347.05
1013.955	348.25
1014.223	346.57
1014.492	348.34
1014.76	346.63
1015.028	347.09
1015.296	347.81
1015.565	346.33
1015.833	348.38
1016.101	349.12
1016.368	347.43
1016.636	348.52
1016.904	348
1017.172	346.35
1017.439	346.57
1017.707	348.8
1017.974	345.65
1018.242	348.46
1018.509	347.29
1018.776	349.06
1019.044	346.92
1019.311	347.48
1019.578	347.26
1019.845	346.74
1020.112	349.05
1020.378	349.05
1020.645	349.05
