Data from 190619_Kr_38K_no_film_FLMS138901_13-54-58-629.txt Node
Date: Wed Jun 19 13:54:58 EDT 2019
User: pSAM
Spectrometer: FLMS13890
Trigger mode: 0
Integration Time (sec): 5.000000E-3
Scans to average: 1000
Electric dark correction enabled: true
Nonlinearity correction enabled: false
Boxcar width: 0
XAxis mode: Wavelengths
Number of Pixels in Spectrum: 2048
>>>>>Begin Spectral Data<<<<<
342.097	-56.89
342.483	-56.89
342.868	-56.89
343.254	-98.31
343.639	-100.29
344.025	-99.95
344.41	-99.09
344.796	-90.3
345.181	-80.04
345.567	-66.55
345.952	-53.64
346.337	-35.6
346.722	-18.74
347.107	-2.28
347.493	18.35
347.878	38.68
348.263	58.28
348.648	79.5
349.033	95.86
349.418	118.64
349.802	136.9
350.187	155.44
350.572	173.74
350.957	240.72
351.342	386.44
351.726	412.65
352.111	428.15
352.495	441.74
352.88	456.04
353.264	467.73
353.649	483.82
354.033	494.51
354.418	504.85
354.802	513.89
355.186	524.01
355.57	531.92
355.955	538.85
356.339	543.15
356.723	548.73
357.107	553.19
357.491	573.09
357.875	560.95
358.259	563.86
358.643	567.89
359.026	567.05
359.41	569.06
359.794	570.63
360.178	572
360.561	573.55
360.945	569.69
361.329	571.73
361.712	574.11
362.096	573.05
362.479	572.71
362.862	570.55
363.246	571.63
363.629	573.43
364.012	571.92
364.396	571.48
364.779	573.47
365.162	571.74
365.545	573.04
365.928	572.18
366.311	573.16
366.694	577.17
367.077	579.5
367.46	579.34
367.843	579.35
368.226	581.4
368.608	583.6
368.991	583.11
369.374	585.38
369.756	584.25
370.139	584.56
370.521	583.88
370.904	587.38
371.286	587.99
371.669	588.99
372.051	591.02
372.433	593.49
372.816	593.65
373.198	595.49
373.58	597.17
373.962	598.91
374.344	602.15
374.726	605.18
375.108	604.72
375.49	610.7
375.872	613.41
376.254	612.37
376.636	615.29
377.018	617
377.399	616.66
377.781	615.74
378.163	615.13
378.544	614.31
378.926	622.4
379.307	622.79
379.689	631.24
380.07	633.4
380.452	639.68
380.833	641.24
381.214	645.54
381.596	649.32
381.977	652.97
382.358	659.26
382.739	670.78
383.12	678.32
383.501	674.42
383.882	669.89
384.263	669.16
384.644	669.49
385.025	677.35
385.406	677.6
385.787	680.98
386.167	683.58
386.548	686.17
386.929	695.43
387.309	702.11
387.69	711.36
388.07	720.97
388.451	723.92
388.831	732.45
389.211	724.99
389.592	720.22
389.972	715.37
390.352	718.23
390.733	720.43
391.113	720.3
391.493	726.65
391.873	734.76
392.253	741.74
392.633	757.59
393.013	762.95
393.393	770.26
393.772	768.45
394.152	767.58
394.532	770.49
394.912	775.39
395.291	775.69
395.671	779.57
396.05	766.6
396.43	770.06
396.809	771.91
397.189	781.72
397.568	789.43
397.948	790.12
398.327	805.77
398.706	815
399.085	817.45
399.465	815.66
399.844	812.69
400.223	804.09
400.602	807.5
400.981	806.65
401.36	806.58
401.739	806.17
402.117	812
402.496	804.87
402.875	811.39
403.254	816.79
403.632	818.76
404.011	828.32
404.39	837.22
404.768	843.41
405.147	858.65
405.525	867.16
405.903	871.47
406.282	874.01
406.66	873.96
407.038	862.61
407.417	857.43
407.795	858.62
408.173	859.2
408.551	863.4
408.929	869.77
409.307	874.13
409.685	881.63
410.063	885.08
410.441	884.33
410.818	887.3
411.196	887.56
411.574	899.36
411.952	901.42
412.329	915.2
412.707	933.64
413.084	947.28
413.462	952.17
413.839	956.31
414.217	943.09
414.594	944.91
414.971	946.86
415.349	949.64
415.726	955.08
416.103	946.63
416.48	948.99
416.857	953.75
417.234	967.21
417.611	971.4
417.988	974.79
418.365	963.93
418.742	964.14
419.119	975.62
419.495	982.25
419.872	978.6
420.249	1004.14
420.625	1011.17
421.002	1027.68
421.379	1038.3
421.755	1059.32
422.131	1075.74
422.508	1080.73
422.884	1081.68
423.26	1091.34
423.637	1106.53
424.013	1083.31
424.389	1075.12
424.765	1059.29
425.141	1070.81
425.517	1063.24
425.893	1058.29
426.269	1058.04
426.645	1059.23
427.021	1089.04
427.397	1108.64
427.772	1128.72
428.148	1127.84
428.524	1125.79
428.899	1108.57
429.275	1121.31
429.651	1137.53
430.026	1166.35
430.401	1179.3
430.777	1176.67
431.152	1173.54
431.527	1165.85
431.903	1164.35
432.278	1156.54
432.653	1156.39
433.028	1159.93
433.403	1191.49
433.778	1230.49
434.153	1233.04
434.528	1231.08
434.903	1218.67
435.278	1229.36
435.653	1250.07
436.027	1255.2
436.402	1263.45
436.777	1273.95
437.151	1271.64
437.526	1276.26
437.9	1277.82
438.275	1297.28
438.649	1290.56
439.023	1304.05
439.398	1306.9
439.772	1304.73
440.146	1309.98
440.52	1323.93
440.895	1341.71
441.269	1382.09
441.643	1412.15
442.017	1415.08
442.391	1408.36
442.765	1400.37
443.138	1387.56
443.512	1412.27
443.886	1423.13
444.26	1426.58
444.633	1434.38
445.007	1439.83
445.38	1439.79
445.754	1442.49
446.127	1453.57
446.501	1448.25
446.874	1452.51
447.248	1446.95
447.621	1455.44
447.994	1449.04
448.367	1458.89
448.741	1468.01
449.114	1459.56
449.487	1474.02
449.86	1479.88
450.233	1480.7
450.606	1477.78
450.978	1472.49
451.351	1475.71
451.724	1476.94
452.097	1473.51
452.469	1489.19
452.842	1484.96
453.215	1493.13
453.587	1496.85
453.96	1509
454.332	1501.16
454.704	1514.88
455.077	1525.33
455.449	1544.41
455.821	1541.77
456.194	1563.78
456.566	1565.11
456.938	1581.07
457.31	1595.16
457.682	1629.39
458.054	1632.52
458.426	1655.77
458.798	1675.15
459.17	1678.15
459.541	1678.59
459.913	1666.29
460.285	1663.3
460.656	1662.79
461.028	1651.89
461.399	1673.16
461.771	1672.01
462.142	1688.27
462.514	1705.27
462.885	1721.62
463.256	1776
463.628	1790.96
463.999	1822.68
464.37	1862.49
464.741	1877.78
465.112	1856.82
465.483	1875.39
465.854	1886.88
466.225	1869.72
466.596	1865.04
466.967	1890.15
467.338	1888.93
467.708	1922.16
468.079	1934.96
468.45	1951.4
468.82	1955.3
469.191	1963.2
469.561	1960.67
469.932	1974.63
470.302	1958.33
470.673	1995.41
471.043	2017.61
471.413	2038.04
471.783	2070.75
472.154	2102.01
472.524	2125.12
472.894	2186.81
473.264	2213.94
473.634	2227.61
474.004	2236.43
474.374	2267.98
474.743	2281.82
475.113	2329.32
475.483	2353.59
475.853	2392.71
476.222	2414.22
476.592	2468.01
476.961	2447.92
477.331	2458.93
477.7	2493.3
478.07	2578.73
478.439	2591.7
478.808	2625.88
479.178	2637.38
479.547	2680.6
479.916	2715.06
480.285	2777.61
480.654	2790.16
481.023	2831.56
481.392	2863.47
481.761	2895.39
482.13	2934.22
482.499	2973.91
482.867	2994.31
483.236	3063.99
483.605	3124.55
483.973	3172.5
484.342	3247.47
484.71	3305.17
485.079	3356.36
485.447	3773.51
485.816	4309.24
486.184	4574.77
486.552	4347.94
486.921	3887.11
487.289	3639.38
487.657	3621.67
488.025	3611.79
488.393	3607.2
488.761	3622.96
489.129	3692.37
489.497	3730.62
489.865	3814.41
490.233	3842.88
490.6	3898.87
490.968	3900.12
491.336	3919.88
491.703	3935.2
492.071	3968.37
492.438	4021.75
492.806	4062.22
493.173	4137.71
493.541	4152.63
493.908	4151.54
494.275	4173.49
494.642	4197.33
495.01	4215.56
495.377	4216.37
495.744	4232.15
496.111	4324.73
496.478	4398.45
496.845	4419.65
497.211	4430.67
497.578	4427.81
497.945	4449.34
498.312	4511.52
498.678	4593.94
499.045	4653.97
499.412	4658.45
499.778	4674.33
500.145	4682.85
500.511	4678.62
500.878	4717.6
501.244	4792.89
501.61	4826.59
501.976	4825.16
502.343	4840.29
502.709	4906.55
503.075	4920.15
503.441	4934.63
503.807	4942.78
504.173	4925.66
504.539	4950.44
504.905	4978.49
505.27	5019.08
505.636	5037.76
506.002	5094.38
506.367	5117.77
506.733	5145.83
507.099	5126.82
507.464	5156.94
507.829	5169.17
508.195	5237.3
508.56	5265.05
508.926	5253.71
509.291	5247.44
509.656	5283.05
510.021	5306.64
510.386	5339.34
510.751	5348.28
511.116	5411.53
511.481	5455.34
511.846	5505.46
512.211	5501.12
512.576	5516.73
512.941	5530.94
513.305	5561.39
513.67	5609.5
514.035	5610.05
514.399	5629.11
514.764	5618.06
515.128	5643.1
515.493	5669.52
515.857	5701.78
516.221	5706.66
516.585	5741.74
516.95	5772.14
517.314	5816.55
517.678	5822.68
518.042	5826.52
518.406	5887.49
518.77	5885.82
519.134	5918.35
519.498	5973.07
519.862	5988.54
520.225	5976.83
520.589	6027.45
520.953	6068.61
521.316	6097.27
521.68	6104.87
522.043	6118.53
522.407	6105.16
522.77	6145.37
523.134	6220.6
523.497	6205.12
523.86	6263.99
524.223	6296.59
524.587	6337.38
524.95	6365.86
525.313	6394.15
525.676	6429.3
526.039	6458
526.402	6482.82
526.765	6549.92
527.127	6575.56
527.49	6620.09
527.853	6650.97
528.215	6645.98
528.578	6698.75
528.941	6730.94
529.303	6781.13
529.666	6815.93
530.028	6843.52
530.39	6864.14
530.753	6879.79
531.115	6917.88
531.477	6983.33
531.839	7010.21
532.201	7026.92
532.564	7083.31
532.926	7117.59
533.287	7235.63
533.649	7270.55
534.011	7315.5
534.373	7345.79
534.735	7370.14
535.097	7422.33
535.458	7488.24
535.82	7524.62
536.181	7509.49
536.543	7510.03
536.904	7498.75
537.266	7629.51
537.627	7689.21
537.988	7731.03
538.35	7796.03
538.711	7862.84
539.072	7883.36
539.433	7872.64
539.794	7955.06
540.155	7974.71
540.516	8006.31
540.877	8037.99
541.238	8136.08
541.599	8221.82
541.959	8274.12
542.32	8367.18
542.681	8408.64
543.041	8417.78
543.402	8467.71
543.762	8524.55
544.123	8541.85
544.483	8570.26
544.844	8630
545.204	8664.07
545.564	8647.75
545.924	8692.68
546.284	8706.8
546.644	8758.79
547.004	8761.54
547.364	8809.31
547.724	8866.22
548.084	8865.05
548.444	8941.13
548.804	8880.16
549.164	8902.11
549.523	8945.26
549.883	8962.1
550.242	8980.72
550.602	9009.05
550.961	9010.14
551.321	9007.83
551.68	9059.48
552.04	9114.92
552.399	9267.54
552.758	9272.82
553.117	9194.46
553.476	9309.61
553.835	9376.32
554.194	9386.16
554.553	9335.92
554.912	9380.04
555.271	9399.86
555.63	9466.62
555.989	9545.35
556.347	9541.58
556.706	9576.41
557.065	9567.87
557.423	9597.12
557.782	9654.4
558.14	9670.11
558.499	9688.79
558.857	9707.19
559.215	9672.53
559.573	9729.44
559.932	9785.64
560.29	9882.01
560.648	9979.21
561.006	10061.72
561.364	10085.61
561.722	10091.95
562.08	10111.27
562.438	10008.37
562.795	10090.92
563.153	10150.38
563.511	10182.49
563.868	10204.26
564.226	10249.06
564.583	10286.02
564.941	10238.86
565.298	10356.13
565.656	10324.76
566.013	10389.53
566.37	10453.28
566.727	10565.28
567.085	10651.92
567.442	10740.81
567.799	10786.55
568.156	10831.5
568.513	10903.26
568.87	11015.99
569.226	11250.67
569.583	11520.43
569.94	11623.92
570.297	11723.77
570.653	11614.14
571.01	11728.79
571.366	11979.78
571.723	12134.35
572.079	12102.54
572.436	12056.15
572.792	11909.28
573.148	12126.81
573.505	12366.63
573.861	12694.67
574.217	12702.09
574.573	12667.94
574.929	12687.78
575.285	12660.98
575.641	12818.1
575.997	12880.61
576.352	12984.66
576.708	13008.1
577.064	13169.89
577.42	13432.92
577.775	13759.05
578.131	13777.85
578.486	13658.37
578.842	13352.26
579.197	13373.64
579.552	13585.77
579.908	13806.03
580.263	14057.66
580.618	13887.11
580.973	13957.18
581.328	14622.48
581.683	15237.51
582.038	15597.26
582.393	14846.44
582.748	14177.51
583.103	13619.72
583.458	13317.57
583.812	13398.51
584.167	13766.73
584.522	14039.64
584.876	14366.73
585.231	14321.05
585.585	14313.93
585.939	14064.41
586.294	13925.37
586.648	13800.13
587.002	13821.96
587.356	14096.39
587.711	14508.09
588.065	14417.19
588.419	14578.71
588.773	14390.28
589.127	14080.93
589.48	13959.43
589.834	13756.76
590.188	13791.07
590.542	13809.74
590.895	13617.3
591.249	13714
591.603	13686.51
591.956	13765.58
592.309	13914.71
592.663	14246.72
593.016	14517.07
593.369	14753.56
593.723	14522.3
594.076	14371.47
594.429	14327.13
594.782	14538.63
595.135	14819.08
595.488	14943.87
595.841	14740.13
596.194	14448.83
596.547	14376.82
596.899	14292.98
597.252	14376.36
597.605	14530.39
597.957	14524.7
598.31	14485.24
598.662	14571.54
599.015	14682.87
599.367	14761.9
599.719	14643.22
600.072	14619.01
600.424	14761
600.776	14934.23
601.128	15002.56
601.48	14962.74
601.832	14977.34
602.184	14875.72
602.536	15028.05
602.888	15115.68
603.24	15441.34
603.592	15630.98
603.943	15507.62
604.295	15228.01
604.646	14999.87
604.998	15091.97
605.349	15217.53
605.701	15320.36
606.052	15317.56
606.404	15188.95
606.755	15229.85
607.106	15370.43
607.457	15352.18
607.808	15386.84
608.159	15292.18
608.51	15256.79
608.861	15295.17
609.212	15160.05
609.563	15317.7
609.914	15555.9
610.265	15581.05
610.615	15796.79
610.966	15808.05
611.316	15895.98
611.667	16041.04
612.017	16102.41
612.368	15774.56
612.718	15890.78
613.068	15824.31
613.419	15950.12
613.769	15960.03
614.119	16014.94
614.469	16073.57
614.819	15858.13
615.169	15818.62
615.519	15961.69
615.869	15905.97
616.219	15839.9
616.568	15756.7
616.918	15716.02
617.268	15971.73
617.617	15980.77
617.967	15976.37
618.316	15846.58
618.666	15885.98
619.015	15906.88
619.364	15891.26
619.714	16174.7
620.063	16192.72
620.412	16146.42
620.761	16033.71
621.11	16018.16
621.459	15915.16
621.808	16051.74
622.157	16228.09
622.506	16228.15
622.855	16315.96
623.203	16472.46
623.552	16502.47
623.901	16516.94
624.249	16379.89
624.598	16485.7
624.946	16430.34
625.295	16333.94
625.643	16239.78
625.991	16339.37
626.34	16355.09
626.688	16422.05
627.036	16576.22
627.384	16535.62
627.732	16604.09
628.08	16563.36
628.428	16453.43
628.776	16448.04
629.124	16512.26
629.471	16698.33
629.819	16751.3
630.167	16694.67
630.514	16680.4
630.862	16565.43
631.209	16617.46
631.557	16646.84
631.904	16677.28
632.251	16839.61
632.599	16791.9
632.946	16780.41
633.293	16738.46
633.64	16679.98
633.987	16805.08
634.334	16822.86
634.681	16845.92
635.028	16917.05
635.375	16901.17
635.722	17101.83
636.068	17187.34
636.415	17265.34
636.762	17288.73
637.108	17305.04
637.455	17168.7
637.801	17159.51
638.147	17271.24
638.494	17275.85
638.84	17400.24
639.186	17333.77
639.532	17468.29
639.878	17521.96
640.225	17554.15
640.571	17623.47
640.916	17610.38
641.262	17572.74
641.608	17524.56
641.954	17626.38
642.3	17551.01
642.645	17577.58
642.991	17594.55
643.337	17654.6
643.682	17692.82
644.028	17693.58
644.373	17652.45
644.718	17677.67
645.064	17738.2
645.409	17856
645.754	17890.48
646.099	17920.64
646.444	17856.43
646.789	17959.91
647.134	17933.46
647.479	17946.63
647.824	17983.19
648.169	18051.88
648.513	18219.71
648.858	18142.47
649.203	18168.93
649.547	18124.33
649.892	18073.7
650.236	18070.08
650.581	18133.29
650.925	18148.96
651.269	18168.17
651.613	18242.79
651.958	18122.48
652.302	18206.13
652.646	18180.09
652.99	18069.7
653.334	18286.05
653.678	18224.69
654.022	18291.01
654.365	18306.74
654.709	18376.03
655.053	18406.35
655.396	18695.97
655.74	24164.48
656.083	39171.94
656.427	45442.83
656.77	44202.69
657.114	29253.33
657.457	21667.42
657.8	19730
658.143	19130.19
658.486	18912.11
658.83	18843.96
659.173	18751.78
659.516	18755.08
659.858	18659.46
660.201	18567.22
660.544	18471.26
660.887	18418.47
661.229	18533.21
661.572	18443.52
661.915	18461.25
662.257	18434.33
662.6	18560.66
662.942	18567.62
663.284	18501.37
663.627	18551.39
663.969	18579.38
664.311	18663.23
664.653	18599.2
664.995	18576.56
665.337	18533.01
665.679	18548.12
666.021	18646.85
666.363	18618.16
666.705	18649.36
667.046	18530.58
667.388	18438.69
667.73	18537.45
668.071	18660.71
668.413	18647.54
668.754	18614.56
669.096	18512.07
669.437	18639.87
669.778	18522.26
670.119	18495.65
670.461	18406.03
670.802	18533.44
671.143	18537.14
671.484	18490.29
671.825	18497.63
672.165	18565.93
672.506	18596.97
672.847	18553.62
673.188	18576.12
673.528	18456.68
673.869	18431.25
674.21	18551.91
674.55	18633.67
674.89	18559.2
675.231	18610.96
675.571	18651.02
675.911	18622.54
676.252	18671.47
676.592	18742.31
676.932	18605.23
677.272	18556.48
677.612	18574.4
677.952	18606.65
678.292	18730.89
678.631	18697.48
678.971	18631.39
679.311	18694.56
679.651	18739.39
679.99	18693.28
680.33	18649.71
680.669	18728.54
681.009	18678.42
681.348	18671.84
681.687	18826.26
682.026	18866.02
682.366	18836.68
682.705	18899.53
683.044	18780.17
683.383	18651.29
683.722	18692.21
684.061	18691.06
684.4	18835.89
684.738	18935.1
685.077	18986.77
685.416	18957.53
685.754	18978.1
686.093	18944.52
686.431	18933.08
686.77	18745.68
687.108	18750.2
687.447	18778.03
687.785	18984.77
688.123	18921.97
688.461	18862.06
688.799	18599.47
689.137	18594.7
689.475	18644.71
689.813	18519.59
690.151	18715.35
690.489	18759.46
690.827	18765.84
691.164	18965.82
691.502	19027.72
691.84	18884.62
692.177	18934.59
692.515	18896.44
692.852	18644.37
693.189	18742.84
693.527	18804.7
693.864	18825.86
694.201	18814.71
694.538	18692.41
694.875	18629.09
695.212	18514.98
695.549	18589.33
695.886	18617.34
696.223	18585.52
696.56	18509.95
696.897	18362.23
697.233	18521.83
697.57	18556.35
697.906	18646.84
698.243	18540.32
698.579	18331.97
698.916	18548.71
699.252	18540.07
699.588	18584.94
699.924	18783.41
700.261	18760.57
700.597	18693.25
700.933	18682.07
701.269	18610.21
701.605	18655.9
701.941	18535.89
702.276	18533.89
702.612	18554.31
702.948	18731.68
703.283	18760.78
703.619	18685.73
703.954	18552.52
704.29	18323.35
704.625	18368.98
704.961	18368.09
705.296	18453.71
705.631	18299.18
705.966	18290.69
706.301	18296.99
706.637	18436.13
706.972	18705.91
707.306	18773.12
707.641	18792.24
707.976	18764.07
708.311	18825.25
708.646	18754.29
708.98	18623.33
709.315	18615.68
709.649	18552.68
709.984	18600.81
710.318	18488.19
710.653	18484.49
710.987	18445.58
711.321	18457.77
711.655	18354.23
711.989	18313.62
712.324	18355.37
712.658	18266.15
712.992	18353.86
713.325	18311.54
713.659	18463.91
713.993	18428.78
714.327	18540.1
714.66	18554.89
714.994	18354.89
715.328	18344.25
715.661	18413.03
715.994	18404.57
716.328	18167.83
716.661	18213.03
716.994	18251.07
717.328	18170.6
717.661	18109.88
717.994	18094.64
718.327	18214.12
718.66	18190.14
718.993	18183.21
719.325	18143.21
719.658	18053.14
719.991	17977.02
720.324	18026.92
720.656	18044.19
720.989	18086.56
721.321	18168.96
721.654	18242.81
721.986	18121.47
722.318	18035.43
722.651	18131.37
722.983	18007.24
723.315	18001.3
723.647	17969.9
723.979	17922.92
724.311	17924.01
724.643	17880.3
724.975	17854.18
725.307	17867.06
725.638	18034.36
725.97	17935.77
726.302	18005.3
726.633	17866.13
726.965	17904.9
727.296	17790.19
727.628	17795.87
727.959	17786.9
728.29	17906.18
728.621	17711.11
728.952	17623.46
729.284	17452.77
729.615	17471.41
729.945	17369.1
730.276	17377.17
730.607	17377.92
730.938	17356.24
731.269	17346.84
731.599	17357.23
731.93	17425.52
732.261	17299.08
732.591	17298.99
732.922	17302.91
733.252	17198.57
733.582	17184.1
733.912	17174.72
734.243	17125.63
734.573	17155.25
734.903	17319.49
735.233	17159.26
735.563	17041.2
735.893	16882.32
736.223	16772.05
736.552	16813.19
736.882	16799.55
737.212	16723.85
737.541	16685.96
737.871	16738.79
738.2	16682.45
738.53	16475.77
738.859	16399.06
739.188	16382.87
739.518	16438.61
739.847	16581.76
740.176	16582.54
740.505	16545.94
740.834	16446
741.163	16317.07
741.492	16193.02
741.821	16210.69
742.15	16112.21
742.478	16133.77
742.807	16003.74
743.136	16059.74
743.464	15964.83
743.793	15931.08
744.121	15965.58
744.449	15949.02
744.778	15924.55
745.106	16031.52
745.434	16002.2
745.762	15685
746.09	15579.86
746.418	15575.87
746.746	15550.72
747.074	15425.78
747.402	15485.6
747.73	15421.58
748.057	15471.59
748.385	15407.58
748.712	15310.21
749.04	15191.49
749.367	15159.26
749.695	15086.24
750.022	15242.38
750.349	15259.72
750.677	15300.67
751.004	15282.25
751.331	15224.56
751.658	15195.48
751.985	15093.91
752.312	14986.82
752.639	14905.97
752.966	14884.08
753.292	14781.57
753.619	14876.92
753.946	14887.35
754.272	14860.04
754.599	14792.1
754.925	14702.56
755.251	14616.53
755.578	14526.97
755.904	14438.33
756.23	14372.36
756.556	14407.91
756.882	14556.58
757.208	14446.08
757.534	14389.05
757.86	14364.72
758.186	14397.04
758.512	14303.35
758.838	14344.79
759.163	14366.08
759.489	14280.89
759.814	14114.6
760.14	14041.71
760.465	14070.81
760.791	14033.48
761.116	14063.67
761.441	13978.77
761.766	13957.53
762.092	13892.51
762.417	13872.82
762.742	13877.2
763.066	13776.3
763.391	13696.77
763.716	13761.79
764.041	13860.47
764.366	13769.57
764.69	13643.98
765.015	13567.66
765.339	13567.57
765.664	13678.07
765.988	13643.25
766.312	13498.77
766.637	13259.57
766.961	13122.21
767.285	13085.8
767.609	13003.06
767.933	12953.78
768.257	13022.25
768.581	12943.35
768.905	13006.61
769.229	13028.48
769.552	12952.21
769.876	13028.15
770.2	12964.62
770.523	12882.35
770.847	12756.45
771.17	12730.81
771.493	12802.99
771.817	12794.07
772.14	12584.51
772.463	12461.95
772.786	12405.57
773.109	12370.9
773.432	12516.76
773.755	12431.43
774.078	12358.77
774.401	12289.49
774.724	12214.62
775.046	12248.52
775.369	12209.87
775.692	12082.01
776.014	11933.89
776.336	11833.63
776.659	11885.12
776.981	11915.41
777.303	11855.69
777.626	11701.17
777.948	11623.73
778.27	11634.78
778.592	11671.63
778.914	11757.88
779.236	11724.72
779.557	11648.69
779.879	11688.06
780.201	11686.09
780.523	11774.86
780.844	11712.74
781.166	11711.98
781.487	11679.85
781.809	11637.68
782.13	11680.02
782.451	11632.71
782.772	11694.18
783.094	11705.1
783.415	11783.51
783.736	11732.8
784.057	11849.77
784.378	11966.9
784.698	11984.12
785.019	11995.75
785.34	11704.18
785.661	11738.67
785.981	11879.09
786.302	11985.17
786.622	12038.5
786.943	12112.48
787.263	11919.08
787.583	11866.84
787.903	11946.85
788.224	12007.85
788.544	12055.43
788.864	11913.77
789.184	11945.77
789.504	11883.85
789.824	11908.81
790.143	11939.69
790.463	11937.91
790.783	11900.16
791.102	11867.79
791.422	11869
791.741	11848.68
792.061	11871.2
792.38	11966.94
792.699	11869.98
793.019	11815.14
793.338	11719.05
793.657	11625.72
793.976	11755.04
794.295	11724.77
794.614	11753.48
794.933	11642.06
795.252	11642.33
795.57	11647.78
795.889	11710.63
796.208	11726.08
796.526	11521.54
796.845	11432.38
797.163	11326.89
797.482	11394.74
797.8	11487.14
798.118	11539.67
798.436	11653.87
798.754	11646.4
799.073	11488.98
799.391	11399.16
799.708	11372.62
800.026	11409.36
800.344	11430.77
800.662	11427.54
800.98	11305.48
801.297	11276.13
801.615	11303.06
801.932	11366.3
802.25	11374.13
802.567	11306.59
802.884	11274.91
803.202	11148.91
803.519	11071.9
803.836	11099.75
804.153	11043.24
804.47	10997.47
804.787	10822.43
805.104	10700.71
805.421	10719.59
805.737	10772.18
806.054	10816.38
806.371	10870.96
806.687	10880.36
807.004	10760.49
807.32	10701.06
807.637	10643.7
807.953	10604.17
808.269	10636.65
808.585	10705.92
808.902	10553.08
809.218	10508.11
809.534	10446.02
809.85	10385.87
810.165	10340.71
810.481	10385.43
810.797	10326.78
811.113	10291.17
811.428	10212.72
811.744	10158.68
812.059	10183.83
812.375	10231.86
812.69	10200.72
813.006	10094.3
813.321	10048.59
813.636	9950.86
813.951	9961.8
814.266	9992.49
814.581	10008.39
814.896	9965.33
815.211	9882
815.526	9802.69
815.841	9708.47
816.155	9715.95
816.47	9705.49
816.784	9735.41
817.099	9687.74
817.413	9571
817.728	9483.1
818.042	9412.39
818.356	9462.99
818.67	9472.4
818.985	9428.33
819.299	9311.05
819.613	9311.91
819.926	9259.89
820.24	9307.54
820.554	9384.61
820.868	9464.34
821.182	9408.82
821.495	9396.8
821.809	9257.46
822.122	9204.76
822.436	9201.16
822.749	9188.27
823.062	9159.01
823.376	9075.94
823.689	8978.46
824.002	8915.65
824.315	8895.53
824.628	8984.58
824.941	9053.6
825.254	9014.82
825.566	8940.11
825.879	8944.85
826.192	8830.7
826.504	8775.56
826.817	8805.75
827.129	8869.29
827.442	8824.98
827.754	8789.26
828.066	8749.27
828.379	8636.41
828.691	8655.37
829.003	8641.49
829.315	8690.59
829.627	8673.29
829.939	8522.4
830.251	8454.77
830.562	8329.56
830.874	8354.37
831.186	8379.94
831.497	8454.96
831.809	8388.31
832.12	8237.37
832.432	8114.44
832.743	8118.71
833.054	8163.57
833.365	8216.97
833.676	8257.55
833.988	8241.02
834.299	8199.23
834.61	8161.85
834.92	8075.93
835.231	8076.87
835.542	8094.8
835.853	8134.6
836.163	8110.65
836.474	8041.44
836.784	7956.27
837.095	7859.21
837.405	7821.39
837.715	7860.7
838.026	7936.55
838.336	7942.73
838.646	7888.58
838.956	7723.23
839.266	7630.91
839.576	7545.95
839.886	7571.99
840.195	7615.2
840.505	7614.14
840.815	7607.91
841.124	7518.7
841.434	7416.9
841.743	7344.01
842.053	7342.07
842.362	7309.7
842.671	7327.79
842.981	7346.77
843.29	7242.39
843.599	7191.89
843.908	7153.98
844.217	7160.72
844.526	7268.49
844.835	7335.42
845.143	7298.36
845.452	7207.36
845.761	7149.09
846.069	7014.5
846.378	7000.12
846.686	6946.48
846.995	6954.16
847.303	6944.24
847.611	6962.95
847.919	6914
848.227	6895.19
848.535	6821.47
848.843	6772.57
849.151	6776.77
849.459	6869.58
849.767	6879.77
850.075	6878.67
850.382	6787.39
850.69	6709.03
850.998	6657.66
851.305	6606.1
851.612	6625.33
851.92	6622.67
852.227	6618.62
852.534	6571.52
852.841	6501.74
853.148	6443.29
853.455	6509.01
853.762	6528.27
854.069	6566.9
854.376	6524.48
854.683	6457.54
854.99	6374.14
855.296	6319.5
855.603	6245.03
855.909	6209.84
856.216	6210.7
856.522	6224.94
856.828	6231.1
857.135	6191.6
857.441	6147.04
857.747	6094.72
858.053	6110.72
858.359	6082.69
858.665	6137.4
858.971	6138.67
859.276	6080.89
859.582	5974.39
859.888	5908.16
860.193	5829.09
860.499	5797.53
860.804	5824.85
861.11	5858.02
861.415	5931.16
861.72	5948.89
862.026	5850.86
862.331	5773.24
862.636	5658.13
862.941	5622.21
863.246	5623.7
863.551	5685.43
863.855	5717.78
864.16	5714.01
864.465	5673.4
864.769	5620.07
865.074	5551.33
865.378	5502.78
865.683	5487.6
865.987	5575.86
866.291	5564.96
866.596	5564.6
866.9	5475.21
867.204	5416.16
867.508	5344.78
867.812	5306.6
868.116	5315.76
868.42	5314.27
868.723	5289.93
869.027	5242.71
869.331	5163.72
869.634	5101.9
869.938	5036.42
870.241	5046.85
870.544	5076.25
870.848	5113.46
871.151	5101.8
871.454	5070.42
871.757	5028.12
872.06	4965.16
872.363	4902.09
872.666	4915.07
872.969	4920
873.272	4940.41
873.574	4971.47
873.877	4945.39
874.18	4858.9
874.482	4765.64
874.785	4738.79
875.087	4717.56
875.389	4777.94
875.692	4836.46
875.994	4865.27
876.296	4849.61
876.598	4805.74
876.9	4709.48
877.202	4626.1
877.504	4574.84
877.805	4559.24
878.107	4583.01
878.409	4576.38
878.71	4611.56
879.012	4582.12
879.313	4521.86
879.615	4506.75
879.916	4445.29
880.217	4407.35
880.518	4384.56
880.82	4399.58
881.121	4399.82
881.422	4427.16
881.723	4395.41
882.023	4329.18
882.324	4286.55
882.625	4223.63
882.926	4206.94
883.226	4241.77
883.527	4204.91
883.827	4207.58
884.128	4179.89
884.428	4140.02
884.728	4079.16
885.028	4043.67
885.328	4014.96
885.629	3980.75
885.929	3983.87
886.228	3979.2
886.528	3934.96
886.828	3893.08
887.128	3853.5
887.427	3815.46
887.727	3795.4
888.027	3782.24
888.326	3806.05
888.625	3814.99
888.925	3762.65
889.224	3740.35
889.523	3694.42
889.822	3649.23
890.121	3628.46
890.42	3611.93
890.719	3627.22
891.018	3602.95
891.317	3613.32
891.616	3594.61
891.914	3562.04
892.213	3559.33
892.512	3559.86
892.81	3570.08
893.108	3579.14
893.407	3595.69
893.705	3627.34
894.003	3617.39
894.301	3606.53
894.599	3579.49
894.897	3563.44
895.195	3533.11
895.493	3487.35
895.791	3494.76
896.089	3511.58
896.386	3504.73
896.684	3512.22
896.981	3483.95
897.279	3459.7
897.576	3470.31
897.874	3419.35
898.171	3430.48
898.468	3443.61
898.765	3456.85
899.062	3502.19
899.359	3509.76
899.656	3507.42
899.953	3490.84
900.25	3471.26
900.547	3452.07
900.843	3446.46
901.14	3477.85
901.436	3500.41
901.733	3505.09
902.029	3489.17
902.325	3474.38
902.622	3414.46
902.918	3390.93
903.214	3375.22
903.51	3345.34
903.806	3347.46
904.102	3346.01
904.398	3360.72
904.694	3347.37
904.989	3383.28
905.285	3361.8
905.581	3324.31
905.876	3313.49
906.171	3286.77
906.467	3271.95
906.762	3261.81
907.057	3236.49
907.353	3254.07
907.648	3259.17
907.943	3277.03
908.238	3266.32
908.533	3225.8
908.827	3181.57
909.122	3153.99
909.417	3162.49
909.711	3195.39
910.006	3200.72
910.301	3184.36
910.595	3194.46
910.889	3199.97
911.184	3157.76
911.478	3157.52
911.772	3165.43
912.066	3145.24
912.36	3143
912.654	3142.37
912.948	3147.67
913.242	3158.43
913.536	3108.48
913.829	3053.15
914.123	3013.97
914.416	2964.67
914.71	2960.69
915.003	2972.43
915.297	2971.47
915.59	2964.92
915.883	2960.16
916.176	2958.03
916.469	2919.31
916.762	2884.28
917.055	2835.35
917.348	2811.27
917.641	2814
917.934	2815.79
918.226	2812.67
918.519	2800.38
918.811	2778.28
919.104	2746.6
919.396	2698.8
919.689	2660.07
919.981	2640.19
920.273	2639.07
920.565	2655.8
920.857	2658.71
921.149	2680.18
921.441	2688.95
921.733	2681.07
922.025	2637.52
922.316	2593.8
922.608	2561.24
922.9	2527.45
923.191	2504.55
923.483	2503.38
923.774	2473.29
924.065	2459.37
924.357	2433.48
924.648	2395.23
924.939	2364.22
925.23	2332.17
925.521	2312.11
925.812	2308.18
926.102	2309.36
926.393	2316.95
926.684	2327.97
926.975	2325.23
927.265	2310.66
927.556	2288.03
927.846	2255.91
928.136	2221.16
928.427	2188.41
928.717	2167.83
929.007	2160.33
929.297	2146.04
929.587	2153.32
929.877	2154
930.167	2143.51
930.457	2116.41
930.746	2081.69
931.036	2050.55
931.325	2016.79
931.615	2001.61
931.904	2010.23
932.194	2005.67
932.483	2003.71
932.772	2013.71
933.062	2005.91
933.351	1976.96
933.64	1928.04
933.929	1903.03
934.218	1876.45
934.506	1862.62
934.795	1867.78
935.084	1869.67
935.372	1873.68
935.661	1861.84
935.949	1840.35
936.238	1824.82
936.526	1785.96
936.815	1752.79
937.103	1721.14
937.391	1701.7
937.679	1693.3
937.967	1694.49
938.255	1692.01
938.543	1694.9
938.831	1683.07
939.118	1677.23
939.406	1650.25
939.693	1615.27
939.981	1584.91
940.268	1569.04
940.556	1548.45
940.843	1544.06
941.13	1547.73
941.418	1550.23
941.705	1549.59
941.992	1551.59
942.279	1540.69
942.566	1520.03
942.852	1495.41
943.139	1471.94
943.426	1446.39
943.712	1432.42
943.999	1416.19
944.285	1414.55
944.572	1408.33
944.858	1410.11
945.144	1413.43
945.431	1397.14
945.717	1386.24
946.003	1372.59
946.289	1357.5
946.575	1343.69
946.861	1335.89
947.146	1330.28
947.432	1327.53
947.718	1316.09
948.003	1307.13
948.289	1292.47
948.574	1271.61
948.86	1253.64
949.145	1240.94
949.43	1228.91
949.715	1220.6
950	1204.99
950.285	1207.59
950.57	1211.25
950.855	1207.92
951.14	1198.08
951.425	1188.53
951.709	1174
951.994	1154.03
952.278	1146.21
952.563	1134.52
952.847	1123.5
953.132	1118.93
953.416	1119.14
953.7	1112.34
953.984	1111.04
954.268	1103.17
954.552	1093.78
954.836	1083.2
955.12	1071.97
955.404	1057.03
955.687	1045.59
955.971	1036.31
956.254	1033.5
956.538	1030.34
956.821	1024
957.105	1015.92
957.388	1013.66
957.671	1001.66
957.954	990.2
958.237	984.28
958.52	976.16
958.803	970.72
959.086	966.56
959.369	964.89
959.652	962.2
959.934	957.86
960.217	952.27
960.499	949.37
960.782	936.95
961.064	925.85
961.346	915.67
961.629	904.71
961.911	891.2
962.193	883.73
962.475	877.74
962.757	869
963.039	863.77
963.32	863.26
963.602	854.61
963.884	846.8
964.165	841.95
964.447	839.61
964.728	827.43
965.01	819.9
965.291	812.81
965.572	807.66
965.853	804.98
966.134	802.32
966.415	800.96
966.696	796.22
966.977	787.43
967.258	782.11
967.539	771.59
967.819	764.22
968.1	753.1
968.38	739.62
968.661	732.17
968.941	724.15
969.222	723.16
969.502	719.43
969.782	717.16
970.062	714.41
970.342	705.71
970.622	700.32
970.902	692.11
971.182	684.52
971.462	679.5
971.741	674.99
972.021	671.56
972.3	669.29
972.58	664.89
972.859	662.01
973.138	656.34
973.418	654.34
973.697	646.53
973.976	641.74
974.255	634.14
974.534	627.12
974.813	623.77
975.092	617.66
975.37	615.41
975.649	613.12
975.928	609.31
976.206	608.74
976.485	605.74
976.763	599.45
977.041	595.06
977.32	590.82
977.598	585.34
977.876	580.8
978.154	574.76
978.432	567.52
978.71	564.34
978.988	556.82
979.265	555.97
979.543	552.99
979.821	550.3
980.098	547.69
980.376	543.12
980.653	537.83
980.93	533.85
981.208	527.88
981.485	524.47
981.762	522.99
982.039	520.07
982.316	517.5
982.593	517.62
982.87	513.25
983.146	511.27
983.423	508.24
983.7	507.57
983.976	502.38
984.253	498.46
984.529	496.11
984.805	494.54
985.082	491.24
985.358	486.12
985.634	482.38
985.91	480.6
986.186	479.37
986.462	477.14
986.738	476.3
987.013	472.25
987.289	471.35
987.565	469.91
987.84	465.17
988.116	463.52
988.391	460.11
988.666	460.64
988.942	456.61
989.217	456.01
989.492	451.97
989.767	449.94
990.042	445.99
990.317	443.88
990.592	442.77
990.866	436.81
991.141	438.28
991.416	438.56
991.69	436.29
991.964	436.14
992.239	433.09
992.513	433.01
992.787	431.35
993.062	428.15
993.336	426.07
993.61	425.44
993.884	425.51
994.158	419.94
994.431	421.08
994.705	417.9
994.979	416.24
995.252	415.35
995.526	414.63
995.799	411.99
996.073	409.58
996.346	409.73
996.619	409.34
996.892	407.09
997.165	406.47
997.438	408.76
997.711	404.44
997.984	404.82
998.257	404.93
998.53	401.83
998.802	400.93
999.075	400.93
999.347	398.26
999.62	397.67
999.892	397.58
1000.165	395.68
1000.437	394.37
1000.709	393.51
1000.981	392.82
1001.253	389.73
1001.525	392.23
1001.797	392.74
1002.068	389.48
1002.34	389.32
1002.612	389.48
1002.883	388.45
1003.155	385.12
1003.426	384.49
1003.698	382.36
1003.969	382.9
1004.24	382.9
1004.511	382.88
1004.782	381.16
1005.053	382.73
1005.324	382.18
1005.595	378.95
1005.866	379.41
1006.136	378.34
1006.407	377.39
1006.678	379.07
1006.948	379.12
1007.218	376.5
1007.489	374.49
1007.759	375.4
1008.029	376.33
1008.299	373.66
1008.569	373.7
1008.839	371.37
1009.109	372.18
1009.379	371.97
1009.649	371.72
1009.918	371.4
1010.188	371.11
1010.458	372.24
1010.727	369.98
1010.996	371.48
1011.266	368.88
1011.535	369.82
1011.804	368.91
1012.073	367.75
1012.342	368.34
1012.611	367.57
1012.88	368.77
1013.149	365.93
1013.417	366.99
1013.686	365.76
1013.955	367.82
1014.223	364.64
1014.492	364.09
1014.76	366.39
1015.028	366.99
1015.296	364.82
1015.565	364.52
1015.833	363.74
1016.101	364.03
1016.368	364.68
1016.636	363.86
1016.904	364.95
1017.172	364.13
1017.439	363.48
1017.707	362.52
1017.974	365.86
1018.242	363.85
1018.509	362.16
1018.776	362.34
1019.044	361.57
1019.311	363.53
1019.578	362.07
1019.845	362.87
1020.112	362.08
1020.378	362.08
1020.645	362.08
