Data from 190617_Kr_33K_no_film_FLMS138901_15-50-34-247.txt Node
Date: Mon Jun 17 15:50:34 EDT 2019
User: pSAM
Spectrometer: FLMS13890
Trigger mode: 0
Integration Time (sec): 5.000000E-3
Scans to average: 1000
Electric dark correction enabled: true
Nonlinearity correction enabled: false
Boxcar width: 0
XAxis mode: Wavelengths
Number of Pixels in Spectrum: 2048
>>>>>Begin Spectral Data<<<<<
342.097	-60.81
342.483	-60.81
342.868	-60.81
343.254	-100.52
343.639	-101.95
344.025	-100.72
344.41	-98.76
344.796	-89.68
345.181	-80.7
345.567	-70.23
345.952	-50.67
346.337	-37.5
346.722	-18.6
347.107	0.62
347.493	19.85
347.878	37.8
348.263	58.82
348.648	79.21
349.033	97.18
349.418	116.54
349.802	136.85
350.187	154.72
350.572	170.33
350.957	229.56
351.342	348.44
351.726	373.11
352.111	388.41
352.495	403.82
352.88	415.95
353.264	429.74
353.649	441.86
354.033	452.41
354.418	462.26
354.802	470.73
355.186	481.86
355.57	487.72
355.955	494.86
356.339	500.03
356.723	504.98
357.107	509.98
357.491	540.63
357.875	516.24
358.259	517.13
358.643	519.74
359.026	520.2
359.41	521.98
359.794	522.42
360.178	524.81
360.561	524.84
360.945	523.66
361.329	526.61
361.712	525.51
362.096	524.92
362.479	521.16
362.862	523.48
363.246	522.33
363.629	521.38
364.012	521.57
364.396	522.7
364.779	524.34
365.162	522.47
365.545	525.11
365.928	525.67
366.311	524.67
366.694	526.02
367.077	529.14
367.46	529.18
367.843	529.09
368.226	530.72
368.608	530.5
368.991	533.03
369.374	534.57
369.756	535.04
370.139	535.34
370.521	535.56
370.904	537.32
371.286	537.08
371.669	538.71
372.051	537.46
372.433	541.84
372.816	542.2
373.198	545.82
373.58	547.12
373.962	548.22
374.344	550.66
374.726	552.3
375.108	552.25
375.49	555.01
375.872	557.62
376.254	555.34
376.636	556.4
377.018	558.88
377.399	560.46
377.781	564.74
378.163	563.19
378.544	562.42
378.926	570.05
379.307	576.5
379.689	581.21
380.07	582.2
380.452	584.12
380.833	589.19
381.214	590.16
381.596	593.21
381.977	597.82
382.358	602.47
382.739	609.14
383.12	613.89
383.501	611.63
383.882	611.24
384.263	611.54
384.644	614.62
385.025	616.71
385.406	619.64
385.787	620.77
386.167	625.32
386.548	628.15
386.929	633.22
387.309	639.4
387.69	646.83
388.07	655.8
388.451	658.82
388.831	662.31
389.211	660.12
389.592	652.9
389.972	651.86
390.352	655.26
390.733	657.36
391.113	655.22
391.493	658.86
391.873	669.72
392.253	675.93
392.633	685.65
393.013	691.56
393.393	696.2
393.772	692.43
394.152	697.3
394.532	695.34
394.912	702.29
395.291	699.87
395.671	699.33
396.05	696.71
396.43	696.44
396.809	696.25
397.189	707.47
397.568	711.52
397.948	718.19
398.327	725.25
398.706	733.77
399.085	734.48
399.465	735.38
399.844	729.5
400.223	721.79
400.602	727.48
400.981	722.23
401.36	724.29
401.739	723.95
402.117	732.11
402.496	726.24
402.875	730.17
403.254	736.7
403.632	737.08
404.011	742.97
404.39	750.74
404.768	755.5
405.147	767.36
405.525	775.39
405.903	779.12
406.282	781.55
406.66	779.59
407.038	772.08
407.417	765.63
407.795	765.19
408.173	768.29
408.551	771.1
408.929	773.94
409.307	777.75
409.685	786.69
410.063	788.18
410.441	787.13
410.818	791.3
411.196	790.61
411.574	800.56
411.952	805.22
412.329	814.49
412.707	833.88
413.084	840.93
413.462	843.13
413.839	848.53
414.217	837.56
414.594	836.23
414.971	837.98
415.349	844.96
415.726	844.96
416.103	840.74
416.48	843.69
416.857	849.33
417.234	859
417.611	859.81
417.988	862.07
418.365	855.69
418.742	859.45
419.119	865.41
419.495	864.69
419.872	867.29
420.249	887.62
420.625	894.54
421.002	906.14
421.379	915.79
421.755	929.87
422.131	942.26
422.508	943.59
422.884	951.11
423.26	955.28
423.637	967.72
424.013	950.8
424.389	941.02
424.765	934.9
425.141	941.98
425.517	934.8
425.893	926.91
426.269	927.82
426.645	934.94
427.021	961.26
427.397	974.36
427.772	984.89
428.148	984.87
428.524	984.47
428.899	974.47
429.275	984.03
429.651	995.78
430.026	1012.55
430.401	1025.8
430.777	1026.55
431.152	1023.33
431.527	1015.99
431.903	1014.36
432.278	1009.01
432.653	1006.52
433.028	1013.16
433.403	1037.7
433.778	1067.26
434.153	1068.92
434.528	1062.02
434.903	1061.17
435.278	1068.99
435.653	1075.46
436.027	1080.97
436.402	1084.9
436.777	1091.85
437.151	1096.15
437.526	1101.4
437.9	1106.54
438.275	1119.41
438.649	1116.45
439.023	1127.41
439.398	1129.55
439.772	1127.01
440.146	1128.05
440.52	1142.93
440.895	1164.64
441.269	1197.96
441.643	1218.26
442.017	1216.23
442.391	1212.68
442.765	1211.51
443.138	1198.9
443.512	1215.94
443.886	1221.74
444.26	1225.91
444.633	1234.82
445.007	1235.76
445.38	1237.35
445.754	1242.65
446.127	1243.14
446.501	1242.74
446.874	1243.13
447.248	1238.63
447.621	1247.19
447.994	1246.44
448.367	1251.53
448.741	1252.3
449.114	1247.57
449.487	1260.99
449.86	1266.13
450.233	1268.38
450.606	1264.07
450.978	1259.17
451.351	1277.68
451.724	1263.3
452.097	1266.02
452.469	1273.69
452.842	1272.86
453.215	1278.08
453.587	1280.7
453.96	1286.31
454.332	1284.56
454.704	1297.18
455.077	1303.39
455.449	1316.17
455.821	1310.15
456.194	1327.68
456.566	1329.69
456.938	1344.24
457.31	1362.2
457.682	1384.27
458.054	1388.11
458.426	1401.57
458.798	1413.76
459.17	1426.15
459.541	1423.3
459.913	1407.13
460.285	1406.16
460.656	1406.17
461.028	1406.67
461.399	1423.41
461.771	1419.08
462.142	1430.1
462.514	1450.33
462.885	1464.7
463.256	1498.36
463.628	1517.32
463.999	1537.34
464.37	1571.26
464.741	1576.17
465.112	1567.16
465.483	1575.82
465.854	1587.02
466.225	1574.41
466.596	1574.6
466.967	1595.57
467.338	1596.78
467.708	1620.94
468.079	1623.35
468.45	1637.75
468.82	1640.32
469.191	1645
469.561	1641.97
469.932	1657.21
470.302	1649.27
470.673	1673.67
471.043	1691.3
471.413	1710.41
471.783	1728.96
472.154	1764.54
472.524	1783.65
472.894	1829.9
473.264	1859.22
473.634	1858.44
474.004	1863.57
474.374	1891.41
474.743	1903.25
475.113	1939.81
475.483	1964.24
475.853	1990.68
476.222	2009.38
476.592	2046.27
476.961	2041.02
477.331	2058.24
477.7	2083.76
478.07	2130.14
478.439	2145.66
478.808	2168.66
479.178	2179.86
479.547	2229.59
479.916	2240.18
480.285	2292.79
480.654	2308.05
481.023	2340.25
481.392	2365.52
481.761	2392.22
482.13	2420.09
482.499	2455.78
482.867	2472.58
483.236	2524.97
483.605	2575.09
483.973	2598.25
484.342	2665.7
484.71	2699.72
485.079	2793.76
485.447	3167.96
485.816	3507.8
486.184	3695.89
486.552	3488.6
486.921	3219.21
487.289	3026.57
487.657	2960.83
488.025	2947.1
488.393	2945.24
488.761	2965.29
489.129	3013.49
489.497	3039.9
489.865	3113.11
490.233	3143.38
490.6	3188.7
490.968	3186.07
491.336	3195.19
491.703	3202.02
492.071	3228.11
492.438	3253.93
492.806	3291.57
493.173	3350.66
493.541	3378.54
493.908	3379.58
494.275	3381.17
494.642	3393.62
495.01	3411.25
495.377	3416.69
495.744	3442.81
496.111	3511
496.478	3564.87
496.845	3582.76
497.211	3577.86
497.578	3586.78
497.945	3612.07
498.312	3670.35
498.678	3713.11
499.045	3766.98
499.412	3762.39
499.778	3768.33
500.145	3769.79
500.511	3777.8
500.878	3826.27
501.244	3874.84
501.61	3899.63
501.976	3903.91
502.343	3918.76
502.709	3961.46
503.075	3979.04
503.441	3974.75
503.807	3996.32
504.173	3994.17
504.539	4009.32
504.905	4029.59
505.27	4063.33
505.636	4087.56
506.002	4127.91
506.367	4137.82
506.733	4155.44
507.099	4146.28
507.464	4158.74
507.829	4168.75
508.195	4213.74
508.56	4230.47
508.926	4229.63
509.291	4244.35
509.656	4259.69
510.021	4283.64
510.386	4315.01
510.751	4334.41
511.116	4366.74
511.481	4386.66
511.846	4405.6
512.211	4412.42
512.576	4437.8
512.941	4439.98
513.305	4456.72
513.67	4483.66
514.035	4494.65
514.399	4527.24
514.764	4535.96
515.128	4548.75
515.493	4564.01
515.857	4589.47
516.221	4588.38
516.585	4612.27
516.95	4642.84
517.314	4657.49
517.678	4664.99
518.042	4671.38
518.406	4724.85
518.77	4729.59
519.134	4749.35
519.498	4799.05
519.862	4811.46
520.225	4779.4
520.589	4812.68
520.953	4848.74
521.316	4879.01
521.68	4878.59
522.043	4908.73
522.407	4900.59
522.77	4917.79
523.134	4964.83
523.497	4958.06
523.86	5002.92
524.223	5037.46
524.587	5062.13
524.95	5074.67
525.313	5113.78
525.676	5145.52
526.039	5160.62
526.402	5154.1
526.765	5209.39
527.127	5240.84
527.49	5287.46
527.853	5298.73
528.215	5293.17
528.578	5341.61
528.941	5354.63
529.303	5396.05
529.666	5418.45
530.028	5451.45
530.39	5481.29
530.753	5490.28
531.115	5510.92
531.477	5568.37
531.839	5604.92
532.201	5609.86
532.564	5657.36
532.926	5695.64
533.287	5766.13
533.649	5785.67
534.011	5797.8
534.373	5827.59
534.735	5854.6
535.097	5886.56
535.458	5927.07
535.82	5978.69
536.181	5998.61
536.543	5989.92
536.904	5984.02
537.266	6049.19
537.627	6095.51
537.988	6127.98
538.35	6173.76
538.711	6229.32
539.072	6280.9
539.433	6262.71
539.794	6326.47
540.155	6341.53
540.516	6375.68
540.877	6420.6
541.238	6448.69
541.599	6495.15
541.959	6541.64
542.32	6593.24
542.681	6601.2
543.041	6612.79
543.402	6655.48
543.762	6695.03
544.123	6724.63
544.483	6763.2
544.844	6818.2
545.204	6841.06
545.564	6824.4
545.924	6835.71
546.284	6844.02
546.644	6862.98
547.004	6878.6
547.364	6925.25
547.724	6985.99
548.084	7005.49
548.444	7052.75
548.804	7051.61
549.164	7094.35
549.523	7105.11
549.883	7113.61
550.242	7128.4
550.602	7166.81
550.961	7170.95
551.321	7149.28
551.68	7200.05
552.04	7217.68
552.399	7275.75
552.758	7279.42
553.117	7280.75
553.476	7373.78
553.835	7391.44
554.194	7415.43
554.553	7407.52
554.912	7428.57
555.271	7461.79
555.63	7510.87
555.989	7551.02
556.347	7547.34
556.706	7589.67
557.065	7587.08
557.423	7614.41
557.782	7644.5
558.14	7655.71
558.499	7669.58
558.857	7698.5
559.215	7688.77
559.573	7748.46
559.932	7794.16
560.29	7863.18
560.648	7880.18
561.006	7906.38
561.364	7935.46
561.722	7947.86
562.08	7984.94
562.438	7964.45
562.795	8020.48
563.153	8055.02
563.511	8057.39
563.868	8094.14
564.226	8113.44
564.583	8176.34
564.941	8129.1
565.298	8218.88
565.656	8183.83
566.013	8209.46
566.37	8266.49
566.727	8337.03
567.085	8426.57
567.442	8540.49
567.799	8606.29
568.156	8630.15
568.513	8713.26
568.87	8800.83
569.226	8965.73
569.583	9143.85
569.94	9195.82
570.297	9261.71
570.653	9256.41
571.01	9319.18
571.366	9489.36
571.723	9583.59
572.079	9557.12
572.436	9505.26
572.792	9540.5
573.148	9666.33
573.505	9810.91
573.861	10044.31
574.217	10088.66
574.573	10094.45
574.929	10085.42
575.285	10096.65
575.641	10143.22
575.997	10222.49
576.352	10267.9
576.708	10299.82
577.064	10415.74
577.42	10666.22
577.775	10871.47
578.131	10915.64
578.486	10817.27
578.842	10608.28
579.197	10621.32
579.552	10762.9
579.908	10940.21
580.263	11074.65
580.618	10976.57
580.973	11102.37
581.328	11521.74
581.683	12023.63
582.038	12224.01
582.393	11771.35
582.748	11296.81
583.103	10899.64
583.458	10653.78
583.812	10626.04
584.167	10845.62
584.522	11112.51
584.876	11344.62
585.231	11473.22
585.585	11478.77
585.939	11346.77
586.294	11205.27
586.648	11120.01
587.002	11100.22
587.356	11293.71
587.711	11521.59
588.065	11548.7
588.419	11600.49
588.773	11405.43
589.127	11160.47
589.48	11079.09
589.834	10866.74
590.188	10897.54
590.542	10894.69
590.895	10820.91
591.249	10975.33
591.603	10923.73
591.956	10922.62
592.309	11048.44
592.663	11214.59
593.016	11479.24
593.369	11631.86
593.723	11509.45
594.076	11395.1
594.429	11418.95
594.782	11572.84
595.135	11788.81
595.488	11813.69
595.841	11682.64
596.194	11500.63
596.547	11345.08
596.899	11307
597.252	11331.6
597.605	11408.94
597.957	11361.34
598.31	11393.77
598.662	11512.47
599.015	11619.24
599.367	11720.24
599.719	11661.56
600.072	11702.52
600.424	11742.71
600.776	11826.63
601.128	11864.22
601.48	11902.19
601.832	11869.39
602.184	11825.44
602.536	11884.4
602.888	12039.39
603.24	12234.82
603.592	12323.2
603.943	12203.33
604.295	12058.78
604.646	11954.27
604.998	11937.2
605.349	12000.73
605.701	12019.37
606.052	12067.88
606.404	12069.54
606.755	12076.98
607.106	12121.93
607.457	12103.05
607.808	12139.83
608.159	12071.76
608.51	12034.54
608.861	12072.45
609.212	12023.66
609.563	12184.85
609.914	12285.99
610.265	12345.97
610.615	12441.77
610.966	12433.9
611.316	12494.36
611.667	12543.57
612.017	12555.42
612.368	12409.9
612.718	12532.71
613.068	12576.98
613.419	12626.97
613.769	12659.48
614.119	12702.41
614.469	12711.53
614.819	12603.14
615.169	12576.39
615.519	12571.83
615.869	12577.3
616.219	12600.94
616.568	12494.71
616.918	12437.57
617.268	12549.58
617.617	12562.63
617.967	12585.19
618.316	12502.04
618.666	12442.24
619.015	12447.52
619.364	12486.3
619.714	12680.21
620.063	12699.21
620.412	12760.2
620.761	12710.37
621.11	12647.11
621.459	12532.94
621.808	12597.57
622.157	12705.22
622.506	12771.18
622.855	12915.68
623.203	12964.25
623.552	12935.16
623.901	12961.49
624.249	12911.82
624.598	13049.7
624.946	12973.72
625.295	12928.11
625.643	12894.14
625.991	12932.79
626.34	12863.05
626.688	12867.4
627.036	12982.78
627.384	12978.3
627.732	13052.61
628.08	13078.64
628.428	13077.99
628.776	13129.31
629.124	13097.1
629.471	13173.01
629.819	13217.82
630.167	13184.21
630.514	13144.94
630.862	13033.32
631.209	13090.77
631.557	13192.57
631.904	13168.45
632.251	13244.87
632.599	13156.21
632.946	13178.76
633.293	13233.63
633.64	13209.73
633.987	13232.12
634.334	13265.09
634.681	13237.94
635.028	13315.35
635.375	13344.98
635.722	13382.68
636.068	13444.37
636.415	13433.55
636.762	13498.41
637.108	13567.39
637.455	13500.93
637.801	13481.08
638.147	13520.54
638.494	13523.36
638.84	13709.9
639.186	13721.69
639.532	13676.72
639.878	13661.4
640.225	13692.32
640.571	13793.02
640.916	13782.16
641.262	13779.66
641.608	13830.64
641.954	13861.81
642.3	13822.89
642.645	13777.51
642.991	13816.23
643.337	13885.03
643.682	13881.25
644.028	13946.32
644.373	13917.25
644.718	13919.9
645.064	13906.35
645.409	13925.39
645.754	13913.47
646.099	13930.81
646.444	13952.81
646.789	14042.64
647.134	14055.38
647.479	14095.22
647.824	14208.64
648.169	14203.36
648.513	14320.04
648.858	14345.47
649.203	14343.27
649.547	14314.55
649.892	14271.84
650.236	14305.45
650.581	14190.27
650.925	14218.94
651.269	14248.07
651.613	14298.71
651.958	14307.97
652.302	14389.15
652.646	14377.58
652.99	14363.12
653.334	14496.84
653.678	14440.95
654.022	14390.25
654.365	14321.5
654.709	14361.24
655.053	14474.16
655.396	15040.53
655.74	21134.25
656.083	29057.15
656.427	34441.31
656.77	33404.66
657.114	25068.51
657.457	19375.7
657.8	16562.52
658.143	15290.67
658.486	14888.75
658.83	14811.79
659.173	14677.8
659.516	14697.64
659.858	14723.9
660.201	14665.16
660.544	14618.54
660.887	14633.01
661.229	14682.52
661.572	14649.63
661.915	14657.06
662.257	14626.52
662.6	14696.17
662.942	14711.72
663.284	14673.65
663.627	14672.01
663.969	14684.14
664.311	14723.49
664.653	14652
664.995	14721.83
665.337	14794.46
665.679	14685.22
666.021	14629.51
666.363	14591.31
666.705	14663.8
667.046	14600.8
667.388	14527.28
667.73	14594.23
668.071	14634.09
668.413	14617.39
668.754	14605.23
669.096	14525.36
669.437	14664.56
669.778	14706.22
670.119	14644.44
670.461	14561.84
670.802	14661.51
671.143	14689.04
671.484	14802.02
671.825	14813.86
672.165	14784.96
672.506	14794.62
672.847	14782.07
673.188	14850.05
673.528	14828.76
673.869	14817.49
674.21	14818.27
674.55	14861.86
674.89	14780.83
675.231	14832.79
675.571	14769.97
675.911	14689.61
676.252	14684.12
676.592	14806.77
676.932	14794.93
677.272	14804.6
677.612	14755.82
677.952	14778.2
678.292	14871.95
678.631	14830.71
678.971	14798.49
679.311	14924.74
679.651	14863.04
679.99	14790.41
680.33	14770.55
680.669	14788.88
681.009	14732.85
681.348	14791.48
681.687	14730.62
682.026	14801.39
682.366	14819.45
682.705	14738.18
683.044	14682.57
683.383	14669.15
683.722	14752.98
684.061	14684.53
684.4	14804.5
684.738	14872.07
685.077	14925.68
685.416	14889.74
685.754	14986.87
686.093	15018.47
686.431	15074.26
686.77	14842.15
687.108	14765.87
687.447	14755.11
687.785	14834.21
688.123	14788.77
688.461	14878.29
688.799	14811.54
689.137	14795.01
689.475	14734.34
689.813	14663.44
690.151	14713.6
690.489	14761.06
690.827	14864.47
691.164	14901.83
691.502	14886.25
691.84	14893.96
692.177	14980.36
692.515	14903.45
692.852	14831.97
693.189	14909.4
693.527	14883.37
693.864	14807.06
694.201	14794.66
694.538	14765.03
694.875	14755.8
695.212	14634.39
695.549	14745.08
695.886	14784.1
696.223	14820.02
696.56	14949.74
696.897	14870.45
697.233	14909.81
697.57	14910.31
697.906	14977.3
698.243	14972.88
698.579	14818.95
698.916	14832.02
699.252	14790.56
699.588	14867.29
699.924	14936.3
700.261	14861.32
700.597	14867.34
700.933	14896.52
701.269	14782.4
701.605	14872.75
701.941	14783.35
702.276	14798.88
702.612	14795.56
702.948	14871.77
703.283	14891.66
703.619	14815.05
703.954	14733.33
704.29	14688.01
704.625	14757.21
704.961	14661.65
705.296	14720.14
705.631	14665.75
705.966	14589.81
706.301	14723.5
706.637	14816.02
706.972	14915.96
707.306	14851.01
707.641	14832.09
707.976	14765.1
708.311	14820.14
708.646	14744.53
708.98	14622.07
709.315	14594.17
709.649	14473.86
709.984	14477.87
710.318	14441.95
710.653	14531.85
710.987	14448.14
711.321	14429.79
711.655	14441.01
711.989	14543.75
712.324	14569.3
712.658	14474.78
712.992	14481.5
713.325	14588.6
713.659	14660.97
713.993	14636.71
714.327	14680.38
714.66	14725.19
714.994	14613.77
715.328	14626.89
715.661	14644.88
715.994	14624.41
716.328	14534.76
716.661	14518.46
716.994	14440.52
717.328	14342.86
717.661	14400.48
717.994	14423.28
718.327	14432.24
718.66	14441.72
718.993	14381.57
719.325	14305.14
719.658	14316.43
719.991	14410.98
720.324	14455.77
720.656	14322.4
720.989	14352.22
721.321	14375.04
721.654	14382.8
721.986	14377.29
722.318	14314.38
722.651	14381.36
722.983	14302.23
723.315	14285.06
723.647	14255.25
723.979	14228.61
724.311	14177.24
724.643	14112.02
724.975	14094.35
725.307	14065.71
725.638	14192.47
725.97	14147.74
726.302	14214.8
726.633	14106.49
726.965	14140.06
727.296	14118.83
727.628	14097.59
727.959	13976.63
728.29	14016.5
728.621	13911.69
728.952	13987.88
729.284	13951.75
729.615	14034.72
729.945	13978.31
730.276	13886.52
730.607	13856.32
730.938	13843.22
731.269	13873.15
731.599	13933.41
731.93	13969.51
732.261	13819.87
732.591	13874.45
732.922	13871.7
733.252	13692.89
733.582	13605.67
733.912	13615.34
734.243	13728.21
734.573	13798.01
734.903	13794.04
735.233	13625.7
735.563	13595.67
735.893	13634.55
736.223	13581.6
736.552	13479.47
736.882	13463.19
737.212	13417.46
737.541	13421.28
737.871	13476.26
738.2	13343.21
738.53	13276.88
738.859	13251.77
739.188	13182.98
739.518	13199.61
739.847	13246.94
740.176	13146.35
740.505	13127.2
740.834	13089.07
741.163	13040.1
741.492	12916.22
741.821	12809.38
742.15	12754.08
742.478	12761.7
742.807	12668.89
743.136	12751.36
743.464	12788.19
743.793	12677.08
744.121	12626.68
744.449	12552.42
744.778	12563.66
745.106	12595.24
745.434	12598.04
745.762	12452.86
746.09	12527
746.418	12556.08
746.746	12452.26
747.074	12316.82
747.402	12363.98
747.73	12351.19
748.057	12372.99
748.385	12282.88
748.712	12219.32
749.04	12196.61
749.367	12183.71
749.695	12092.73
750.022	12147.49
750.349	12183.01
750.677	12185.27
751.004	12106.9
751.331	12039.15
751.658	11985.15
751.985	11914.86
752.312	11753.74
752.639	11739.64
752.966	11846.58
753.292	11770.68
753.619	11789.08
753.946	11777.83
754.272	11674.61
754.599	11642.9
754.925	11591.85
755.251	11581.53
755.578	11583.97
755.904	11540.19
756.23	11462.28
756.556	11523.87
756.882	11636.7
757.208	11598.04
757.534	11630.38
757.86	11602.39
758.186	11697
758.512	11637.25
758.838	11498.62
759.163	11362.46
759.489	11317.55
759.814	11255.48
760.14	11364.32
760.465	11339.91
760.791	11155.55
761.116	11135.16
761.441	11127.37
761.766	11268.12
762.092	11143.11
762.417	10938.21
762.742	10858.37
763.066	10762.47
763.391	10743.71
763.716	10758.38
764.041	10784.61
764.366	10718.85
764.69	10630.51
765.015	10626.3
765.339	10668.51
765.664	10726.1
765.988	10630.49
766.312	10541.11
766.637	10430.03
766.961	10380.66
767.285	10384.93
767.609	10366.15
767.933	10278.6
768.257	10297.56
768.581	10267.15
768.905	10321.6
769.229	10398.61
769.552	10457.16
769.876	10445.68
770.2	10314.16
770.523	10280.45
770.847	10229.91
771.17	10196.89
771.493	10156.03
771.817	10104.29
772.14	9934.56
772.463	9878.72
772.786	9927.98
773.109	9899.27
773.432	9901.97
773.755	9760.37
774.078	9682.16
774.401	9742.13
774.724	9718.98
775.046	9714.24
775.369	9689.05
775.692	9597.87
776.014	9489.54
776.336	9415.89
776.659	9453.77
776.981	9417.96
777.303	9295.99
777.626	9307.96
777.948	9289.02
778.27	9363.59
778.592	9366.16
778.914	9399.11
779.236	9315.71
779.557	9264.06
779.879	9317.47
780.201	9293.11
780.523	9376.3
780.844	9382.11
781.166	9394.51
781.487	9352.94
781.809	9319.63
782.13	9400.36
782.451	9376.5
782.772	9435.72
783.094	9329.3
783.415	9341.18
783.736	9329.72
784.057	9323.82
784.378	9346.67
784.698	9257.89
785.019	9252.15
785.34	9095.11
785.661	9241.47
785.981	9339.71
786.302	9413.92
786.622	9418.8
786.943	9437.76
787.263	9385.45
787.583	9402.15
787.903	9437.94
788.224	9396.69
788.544	9399.87
788.864	9293.49
789.184	9351.72
789.504	9353.13
789.824	9385.65
790.143	9415.42
790.463	9388.54
790.783	9320.84
791.102	9317.79
791.422	9402.33
791.741	9370.62
792.061	9281.62
792.38	9290.07
792.699	9263.55
793.019	9303.2
793.338	9209.05
793.657	9216.14
793.976	9309.79
794.295	9306.1
794.614	9351.76
794.933	9372.18
795.252	9375.85
795.57	9375.13
795.889	9349.42
796.208	9287.18
796.526	9136.45
796.845	9130.74
797.163	9118.96
797.482	9146.22
797.8	9141.69
798.118	9069.95
798.436	9117.65
798.754	9114.98
799.073	9059
799.391	9038.89
799.708	8990.22
800.026	9017.73
800.344	9030.54
800.662	8971.35
800.98	8892.66
801.297	8863.21
801.615	8876.22
801.932	8930.89
802.25	8908.6
802.567	8835.45
802.884	8788.02
803.202	8727.99
803.519	8689.34
803.836	8703.03
804.153	8670.55
804.47	8677.27
804.787	8579.44
805.104	8464.51
805.421	8434.6
805.737	8412.53
806.054	8401.92
806.371	8422.6
806.687	8480.53
807.004	8397.37
807.32	8333.96
807.637	8342.56
807.953	8364.09
808.269	8376.96
808.585	8412.28
808.902	8306.82
809.218	8323.65
809.534	8341.48
809.85	8303.47
810.165	8253.79
810.481	8198.13
810.797	8073.67
811.113	8047.03
811.428	8027.62
811.744	8019.19
812.059	8017.12
812.375	7968.27
812.69	7901.5
813.006	7832.83
813.321	7857.56
813.636	7838.86
813.951	7873.16
814.266	7833.37
814.581	7812.77
814.896	7824.27
815.211	7789.85
815.526	7704.97
815.841	7655.84
816.155	7709.91
816.47	7655.22
816.784	7581.73
817.099	7488.12
817.413	7477.82
817.728	7483.72
818.042	7466.22
818.356	7531.23
818.67	7543.01
818.985	7529.74
819.299	7400.48
819.613	7359.46
819.926	7276.48
820.24	7322.73
820.554	7325
820.868	7355.52
821.182	7246.93
821.495	7263.23
821.809	7209.13
822.122	7155.95
822.436	7114.55
822.749	7106.02
823.062	7123.82
823.376	7066.51
823.689	6951.37
824.002	6927.23
824.315	6935.69
824.628	7028.85
824.941	7079.91
825.254	7045.86
825.566	6990.47
825.879	6945.32
826.192	6910.22
826.504	6901.14
826.817	6944.86
827.129	6981.48
827.442	6885.7
827.754	6828.01
828.066	6793.85
828.379	6684.37
828.691	6703.04
829.003	6694.34
829.315	6659.29
829.627	6580.1
829.939	6563.44
830.251	6546.64
830.562	6459.92
830.874	6473.4
831.186	6461.37
831.497	6489.11
831.809	6467.39
832.12	6406.87
832.432	6343.52
832.743	6325.86
833.054	6315.64
833.365	6353.69
833.676	6374.24
833.988	6346.12
834.299	6312.23
834.61	6295.55
834.92	6271.76
835.231	6251.25
835.542	6198.95
835.853	6209.62
836.163	6226.44
836.474	6186.59
836.784	6128.73
837.095	6061.84
837.405	6019.73
837.715	6022.75
838.026	6009.47
838.336	6016.37
838.646	5974
838.956	5891.27
839.266	5862.4
839.576	5811.53
839.886	5822.1
840.195	5902.35
840.505	5888.95
840.815	5880.86
841.124	5840.86
841.434	5799.71
841.743	5757.7
842.053	5691.23
842.362	5666.39
842.671	5692.07
842.981	5694.88
843.29	5628.79
843.599	5613.11
843.908	5564.11
844.217	5557.56
844.526	5601.92
844.835	5603.65
845.143	5560.09
845.452	5519.97
845.761	5515.09
846.069	5421.7
846.378	5467.89
846.686	5436.3
846.995	5415.43
847.303	5365.5
847.611	5336.36
847.919	5251.37
848.227	5215.71
848.535	5184.44
848.843	5197.32
849.151	5190.82
849.459	5215.57
849.767	5196.7
850.075	5180.82
850.382	5119.21
850.69	5075.35
850.998	5075.58
851.305	5071.8
851.612	5086.43
851.92	5079.95
852.227	5045.4
852.534	5034.98
852.841	5007.37
853.148	4994.45
853.455	5034.46
853.762	4999.4
854.069	5001.31
854.376	4977.14
854.683	4952.57
854.99	4879.27
855.296	4839.3
855.603	4795.05
855.909	4768.16
856.216	4786.87
856.522	4793.22
856.828	4744.2
857.135	4717.41
857.441	4706.93
857.747	4652.67
858.053	4651.96
858.359	4597.52
858.665	4613.48
858.971	4581.74
859.276	4539.26
859.582	4491.51
859.888	4464.62
860.193	4448.93
860.499	4470.4
860.804	4485.19
861.11	4456.71
861.415	4441.72
861.72	4413.41
862.026	4312.05
862.331	4270.56
862.636	4234.4
862.941	4239.09
863.246	4254.62
863.551	4270.91
863.855	4275.86
864.16	4237.75
864.465	4187.87
864.769	4135.69
865.074	4082.49
865.378	4062.52
865.683	4066.23
865.987	4100.21
866.291	4076.51
866.596	4062.68
866.9	4017.21
867.204	4013.12
867.508	4012.41
867.812	4022.06
868.116	4026.12
868.42	4015.66
868.723	3997.05
869.027	3968.49
869.331	3936.97
869.634	3888.21
869.938	3861.08
870.241	3880.65
870.544	3862.52
870.848	3854.49
871.151	3837.77
871.454	3795.88
871.757	3753.9
872.06	3721.39
872.363	3685.34
872.666	3689.17
872.969	3651.91
873.272	3659.9
873.574	3678.19
873.877	3664.81
874.18	3633.72
874.482	3608.12
874.785	3580.53
875.087	3550.54
875.389	3557.21
875.692	3554.19
875.994	3536
876.296	3503.66
876.598	3485.29
876.9	3440.02
877.202	3375.64
877.504	3358.31
877.805	3369.24
878.107	3411.66
878.409	3402.49
878.71	3434.18
879.012	3428.91
879.313	3387.39
879.615	3374.16
879.916	3333.05
880.217	3305.21
880.518	3296.69
880.82	3290.6
881.121	3272.29
881.422	3262.57
881.723	3219.41
882.023	3169.86
882.324	3144.95
882.625	3112.16
882.926	3115.95
883.226	3140.07
883.527	3107.47
883.827	3095.56
884.128	3084.19
884.428	3063.02
884.728	3019.36
885.028	3004.29
885.328	2995.22
885.629	2985.47
885.929	3007.91
886.228	3008.61
886.528	2957.59
886.828	2912.86
887.128	2877.2
887.427	2845.94
887.727	2845.66
888.027	2864.95
888.326	2881.46
888.625	2882.78
888.925	2834.18
889.224	2801.79
889.523	2767.01
889.822	2721.52
890.121	2695.57
890.42	2682.69
890.719	2693.66
891.018	2679.49
891.317	2687.74
891.616	2672.33
891.914	2639.12
892.213	2624.89
892.512	2617.25
892.81	2604.04
893.108	2605
893.407	2620.14
893.705	2627.95
894.003	2622.67
894.301	2609.08
894.599	2592.91
894.897	2587.96
895.195	2571.06
895.493	2567.04
895.791	2600.05
896.089	2626.41
896.386	2627.31
896.684	2626.53
896.981	2604.49
897.279	2578.79
897.576	2577.35
897.874	2548.52
898.171	2559.24
898.468	2578.16
898.765	2594.02
899.062	2625.68
899.359	2621.47
899.656	2604.1
899.953	2578.02
900.25	2566.22
900.547	2547.44
900.843	2532.17
901.14	2533.89
901.436	2546.88
901.733	2566.81
902.029	2555.54
902.325	2538.29
902.622	2503.8
902.918	2500.71
903.214	2500.75
903.51	2489.21
903.806	2506.25
904.102	2528.49
904.398	2528.37
904.694	2517.89
904.989	2529.09
905.285	2493.07
905.581	2453.43
905.876	2454.22
906.171	2448.71
906.467	2449.84
906.762	2452.31
907.057	2443.97
907.353	2438.99
907.648	2415.04
907.943	2407.52
908.238	2390.68
908.533	2368.35
908.827	2358.57
909.122	2340.48
909.417	2349.06
909.711	2370.94
910.006	2361.93
910.301	2334.7
910.595	2333.39
910.889	2330.03
911.184	2295.23
911.478	2300
911.772	2314.66
912.066	2315.76
912.36	2307.58
912.654	2284.71
912.948	2265.87
913.242	2252.56
913.536	2214.9
913.829	2197.12
914.123	2184.25
914.416	2176.79
914.71	2187.44
915.003	2200.21
915.297	2194.1
915.59	2184.61
915.883	2168.95
916.176	2160.88
916.469	2139.88
916.762	2130.6
917.055	2120.65
917.348	2126.43
917.641	2138.31
917.934	2135.33
918.226	2121.43
918.519	2101.79
918.811	2075.19
919.104	2045.24
919.396	2012.51
919.689	1994.71
919.981	1994.77
920.273	2000.46
920.565	2010.15
920.857	1996.8
921.149	1988.42
921.441	1964.66
921.733	1951.17
922.025	1937.37
922.316	1921.99
922.608	1919.4
922.9	1910.61
923.191	1908.93
923.483	1906.06
923.774	1894.25
924.065	1887.57
924.357	1876.46
924.648	1843.97
924.939	1815.88
925.23	1791.88
925.521	1779.57
925.812	1768.97
926.102	1767.14
926.393	1764.9
926.684	1769.67
926.975	1757.7
927.265	1745.38
927.556	1733.48
927.846	1705.4
928.136	1678.34
928.427	1662
928.717	1646.02
929.007	1652.75
929.297	1646.92
929.587	1648.09
929.877	1646.06
930.167	1647.25
930.457	1641.58
930.746	1620.75
931.036	1612.33
931.325	1599.03
931.615	1587.33
931.904	1583.37
932.194	1566.06
932.483	1553.27
932.772	1548.66
933.062	1530.29
933.351	1515.44
933.64	1490.62
933.929	1482
934.218	1471.91
934.506	1462.3
934.795	1455.51
935.084	1456.8
935.372	1453.09
935.661	1450.39
935.949	1440.86
936.238	1438.62
936.526	1414.04
936.815	1398.68
937.103	1380.23
937.391	1362.37
937.679	1359.42
937.967	1360.06
938.255	1362.39
938.543	1355.54
938.831	1339.1
939.118	1325.25
939.406	1305.51
939.693	1288.54
939.981	1275.53
940.268	1277.29
940.556	1275.51
940.843	1277.55
941.13	1276.4
941.418	1275.46
941.705	1268.43
941.992	1260.99
942.279	1245.44
942.566	1223.07
942.852	1203.42
943.139	1197.45
943.426	1186.52
943.712	1181.89
943.999	1179.95
944.285	1180.28
944.572	1174.89
944.858	1169.56
945.144	1161.51
945.431	1147.77
945.717	1132.37
946.003	1123.93
946.289	1112.22
946.575	1104.72
946.861	1100.06
947.146	1101.92
947.432	1100.39
947.718	1091.01
948.003	1086.31
948.289	1076.5
948.574	1063.47
948.86	1053.72
949.145	1045.21
949.43	1033.39
949.715	1028.42
950	1022.62
950.285	1021.67
950.57	1018.41
950.855	1010.43
951.14	1001.2
951.425	993.05
951.709	982.13
951.994	976.8
952.278	977.53
952.563	981
952.847	974.65
953.132	972.01
953.416	968.08
953.7	959.46
953.984	951.4
954.268	941.41
954.552	929.43
954.836	920.82
955.12	907.8
955.404	899.11
955.687	885.25
955.971	881.19
956.254	873.33
956.538	873.99
956.821	874.61
957.105	871.18
957.388	869.19
957.671	856.62
957.954	849.5
958.237	842.03
958.52	834.41
958.803	835.28
959.086	833.5
959.369	835.27
959.652	833.18
959.934	829.61
960.217	823.64
960.499	817.27
960.782	809.17
961.064	796.28
961.346	791.93
961.629	783.12
961.911	776.87
962.193	773.89
962.475	770.86
962.757	769.96
963.039	766.87
963.32	762.81
963.602	751.44
963.884	748.45
964.165	743.98
964.447	742.62
964.728	733.36
965.01	730.09
965.291	724.64
965.572	720.57
965.853	716.85
966.134	714.43
966.415	713.7
966.696	707.96
966.977	702.3
967.258	693.87
967.539	687.53
967.819	683.22
968.1	676.54
968.38	672.18
968.661	673.33
968.941	666.68
969.222	664.08
969.502	659.93
969.782	659.94
970.062	652.46
970.342	650.87
970.622	644.55
970.902	642.46
971.182	637.31
971.462	633.87
971.741	632.89
972.021	627.62
972.3	625.76
972.58	622.19
972.859	620.83
973.138	616.06
973.418	613.08
973.697	604.85
973.976	599.69
974.255	596.19
974.534	589.35
974.813	586.73
975.092	583.71
975.37	583.06
975.649	583.96
975.928	581.34
976.206	578.84
976.485	574.92
976.763	568.82
977.041	562.19
977.32	559.8
977.598	557.88
977.876	553.56
978.154	553.05
978.432	551.64
978.71	550.75
978.988	548.98
979.265	546.92
979.543	548.58
979.821	541.89
980.098	540.52
980.376	533.06
980.653	527.59
980.93	525.52
981.208	522.02
981.485	519.7
981.762	519.96
982.039	515.76
982.316	517.86
982.593	513.66
982.87	513.03
983.146	509.27
983.423	505.51
983.7	503.57
983.976	500.14
984.253	497.7
984.529	495.26
984.805	493.6
985.082	492.1
985.358	490.92
985.634	491.13
985.91	488.79
986.186	490.97
986.462	485.89
986.738	484.61
987.013	481.65
987.289	477.95
987.565	475.96
987.84	473.93
988.116	472.15
988.391	469.81
988.666	466.48
988.942	463.29
989.217	461.69
989.492	460.63
989.767	458.96
990.042	456.84
990.317	451.94
990.592	451.89
990.866	447.46
991.141	447.78
991.416	445.94
991.69	445.11
991.964	442.24
992.239	443.32
992.513	441.06
992.787	441.31
993.062	438.57
993.336	437.74
993.61	435.03
993.884	435.1
994.158	430.79
994.431	431.67
994.705	425.28
994.979	425.99
995.252	426.56
995.526	424.89
995.799	422.99
996.073	422.31
996.346	423
996.619	421.37
996.892	420.2
997.165	417.78
997.438	418.23
997.711	415.63
997.984	413.43
998.257	412.47
998.53	411.22
998.802	410.18
999.075	409.8
999.347	406.37
999.62	407.5
999.892	405.94
1000.165	404.11
1000.437	404.53
1000.709	402.62
1000.981	401.25
1001.253	399.82
1001.525	400.26
1001.797	400.95
1002.068	400.83
1002.34	394.21
1002.612	394.86
1002.883	393.28
1003.155	391.54
1003.426	392.08
1003.698	393.36
1003.969	391.72
1004.24	390.1
1004.511	387.8
1004.782	385.7
1005.053	386.24
1005.324	385.43
1005.595	384.44
1005.866	384.19
1006.136	383.49
1006.407	381.47
1006.678	381
1006.948	381.7
1007.218	380.93
1007.489	380.87
1007.759	380.92
1008.029	379.31
1008.299	378.84
1008.569	379.18
1008.839	379.75
1009.109	376.55
1009.379	375.18
1009.649	375.65
1009.918	374.85
1010.188	375.13
1010.458	372.85
1010.727	372.43
1010.996	373.17
1011.266	371
1011.535	371.12
1011.804	371.2
1012.073	369.11
1012.342	368.76
1012.611	367.41
1012.88	369.07
1013.149	368.31
1013.417	368.92
1013.686	367.81
1013.955	367.94
1014.223	368.27
1014.492	365.88
1014.76	366.7
1015.028	364.44
1015.296	365.43
1015.565	364.07
1015.833	365.44
1016.101	365.26
1016.368	362.04
1016.636	361.53
1016.904	363.22
1017.172	361.54
1017.439	362.68
1017.707	360.84
1017.974	361.13
1018.242	362.31
1018.509	360.18
1018.776	360.07
1019.044	361.55
1019.311	359.75
1019.578	359.98
1019.845	359.18
1020.112	359.79
1020.378	359.79
1020.645	359.79
