Data from 190717_Ar_26K_no_film_FLMS138901_10-34-42-402.txt Node
Date: Wed Jul 17 10:34:42 EDT 2019
User: pSAM
Spectrometer: FLMS13890
Trigger mode: 0
Integration Time (sec): 5.000000E-3
Scans to average: 1000
Electric dark correction enabled: true
Nonlinearity correction enabled: false
Boxcar width: 0
XAxis mode: Wavelengths
Number of Pixels in Spectrum: 2048
>>>>>Begin Spectral Data<<<<<
342.097	-63.21
342.483	-63.21
342.868	-63.21
343.254	-102.34
343.639	-103.71
344.025	-104.57
344.41	-98.01
344.796	-91.16
345.181	-80.36
345.567	-67.52
345.952	-51.87
346.337	-36.02
346.722	-19.46
347.107	-2.72
347.493	19.97
347.878	37.17
348.263	60.81
348.648	79.37
349.033	99.93
349.418	117.56
349.802	136.89
350.187	155.22
350.572	172.3
350.957	231.66
351.342	357.29
351.726	378.9
352.111	395.74
352.495	411.23
352.88	424.11
353.264	437.65
353.649	450.4
354.033	458.49
354.418	469.63
354.802	477.19
355.186	487.34
355.57	494.06
355.955	501.48
356.339	506.67
356.723	511.7
357.107	518.12
357.491	535.69
357.875	521.18
358.259	521.97
358.643	526.04
359.026	527.87
359.41	529.58
359.794	531.94
360.178	533.13
360.561	531.7
360.945	530.95
361.329	532.41
361.712	532.49
362.096	531.71
362.479	530.98
362.862	531.74
363.246	529.23
363.629	531.86
364.012	529.7
364.396	530.3
364.779	532.67
365.162	531.98
365.545	534.06
365.928	535.97
366.311	534.74
366.694	537.36
367.077	536.5
367.46	534.81
367.843	540.48
368.226	539.35
368.608	541.49
368.991	540.47
369.374	543.44
369.756	546.18
370.139	543.99
370.521	543.27
370.904	546.51
371.286	545.6
371.669	549.63
372.051	550.04
372.433	553.65
372.816	553.53
373.198	557.38
373.58	558.47
373.962	561.27
374.344	563.1
374.726	563.41
375.108	567.08
375.49	571.16
375.872	571.58
376.254	572.19
376.636	573.32
377.018	575.73
377.399	573.57
377.781	579.47
378.163	578.16
378.544	582.85
378.926	585.98
379.307	592.48
379.689	592.72
380.07	597.7
380.452	600.97
380.833	603.43
381.214	603.24
381.596	607.84
381.977	613.2
382.358	619.68
382.739	626.19
383.12	630.2
383.501	629.89
383.882	631.58
384.263	630.51
384.644	631.35
385.025	637.81
385.406	638.08
385.787	641.24
386.167	643.69
386.548	647.34
386.929	655.69
387.309	664.16
387.69	669.42
388.07	678.36
388.451	679.4
388.831	684.95
389.211	680.27
389.592	674.93
389.972	674.1
390.352	677.39
390.733	677.75
391.113	680.57
391.493	684.41
391.873	694.66
392.253	701.38
392.633	713.36
393.013	719.76
393.393	725.4
393.772	721.65
394.152	725.3
394.532	728.2
394.912	730.62
395.291	728.83
395.671	728.38
396.05	726.31
396.43	725.54
396.809	726.68
397.189	737.5
397.568	745.61
397.948	747.97
398.327	757.77
398.706	765.24
399.085	768.48
399.465	766.22
399.844	761.91
400.223	755.74
400.602	759.69
400.981	754.05
401.36	756.04
401.739	757.34
402.117	764.43
402.496	759.09
402.875	763.37
403.254	771.32
403.632	770.94
404.011	778.87
404.39	788.83
404.768	793.1
405.147	807.96
405.525	814.03
405.903	816.48
406.282	821.67
406.66	816.77
407.038	805.24
407.417	804.52
407.795	803.99
408.173	810.21
408.551	810.01
408.929	813.26
409.307	819.45
409.685	825.01
410.063	828.39
410.441	827.26
410.818	834.08
411.196	834.25
411.574	848.4
411.952	847.55
412.329	860.38
412.707	880.46
413.084	887.46
413.462	890.41
413.839	896.6
414.217	884.38
414.594	885.97
414.971	886.83
415.349	891.5
415.726	891.24
416.103	886.49
416.48	891.32
416.857	895.93
417.234	907.94
417.611	907.21
417.988	910.53
418.365	902.91
418.742	906.11
419.119	914.22
419.495	915.5
419.872	915.67
420.249	939.88
420.625	948.3
421.002	962.54
421.379	969.73
421.755	990.12
422.131	1001.67
422.508	1006.88
422.884	1008.27
423.26	1017.85
423.637	1031.64
424.013	1006.89
424.389	995.84
424.765	987.56
425.141	993.52
425.517	988.97
425.893	988.5
426.269	985.38
426.645	989.33
427.021	1022.53
427.397	1032.77
427.772	1044.62
428.148	1043.24
428.524	1044.71
428.899	1033.86
429.275	1047.16
429.651	1063.26
430.026	1079.95
430.401	1095.51
430.777	1090.67
431.152	1089.02
431.527	1083.65
431.903	1080.37
432.278	1071.81
432.653	1072.96
433.028	1081.54
433.403	1107.61
433.778	1141.34
434.153	1140.71
434.528	1136.18
434.903	1134.29
435.278	1140.76
435.653	1144.29
436.027	1149.02
436.402	1158.49
436.777	1166.77
437.151	1174.76
437.526	1184.12
437.9	1187.81
438.275	1203.58
438.649	1198.43
439.023	1210.96
439.398	1208.89
439.772	1210.98
440.146	1211.89
440.52	1227.25
440.895	1253.86
441.269	1287.42
441.643	1311.49
442.017	1308.27
442.391	1302.83
442.765	1298.35
443.138	1287.97
443.512	1303.97
443.886	1310.43
444.26	1317.24
444.633	1323.78
445.007	1326.66
445.38	1325.56
445.754	1332.27
446.127	1339.88
446.501	1336.24
446.874	1332.65
447.248	1327.13
447.621	1343.23
447.994	1335.58
448.367	1344.41
448.741	1350.15
449.114	1342.98
449.487	1353.62
449.86	1357.35
450.233	1357.54
450.606	1354.47
450.978	1353.95
451.351	1374.03
451.724	1354.54
452.097	1356.41
452.469	1365.94
452.842	1365.5
453.215	1372.15
453.587	1371.17
453.96	1376.55
454.332	1383.56
454.704	1397.36
455.077	1405.94
455.449	1417.57
455.821	1414.49
456.194	1432.1
456.566	1431.85
456.938	1448.12
457.31	1466.21
457.682	1489.3
458.054	1504.93
458.426	1518.69
458.798	1528.24
459.17	1539.19
459.541	1533.7
459.913	1519.56
460.285	1521.25
460.656	1517.74
461.028	1512.34
461.399	1535.28
461.771	1528.56
462.142	1546
462.514	1567.36
462.885	1585.92
463.256	1625.81
463.628	1644.49
463.999	1677.17
464.37	1709.39
464.741	1715.86
465.112	1704.45
465.483	1715.99
465.854	1728.61
466.225	1716.13
466.596	1716.15
466.967	1739.28
467.338	1734.35
467.708	1762.48
468.079	1774.76
468.45	1787.85
468.82	1794.24
469.191	1800.19
469.561	1799.31
469.932	1812.27
470.302	1799.92
470.673	1833.6
471.043	1845.91
471.413	1876.55
471.783	1901.28
472.154	1930.98
472.524	1959.24
472.894	2007.61
473.264	2039.14
473.634	2040.69
474.004	2048.42
474.374	2076.28
474.743	2092.54
475.113	2132.91
475.483	2158.75
475.853	2192.07
476.222	2209.48
476.592	2254.8
476.961	2245.15
477.331	2260.99
477.7	2293.85
478.07	2361.12
478.439	2382.7
478.808	2407.56
479.178	2414.31
479.547	2457.82
479.916	2473.24
480.285	2525.52
480.654	2548.26
481.023	2586.09
481.392	2613.12
481.761	2635.63
482.13	2668.5
482.499	2704.64
482.867	2724.92
483.236	2791.09
483.605	2846.43
483.973	2880.25
484.342	2954.55
484.71	3003.86
485.079	3089.79
485.447	3506.51
485.816	3900.78
486.184	4091.64
486.552	3837.2
486.921	3532.13
487.289	3335.9
487.657	3282.42
488.025	3257.62
488.393	3262.23
488.761	3294.11
489.129	3345.85
489.497	3367.87
489.865	3456.08
490.233	3495.41
490.6	3543.07
490.968	3526.74
491.336	3542.37
491.703	3563.09
492.071	3598.18
492.438	3624.48
492.806	3682.68
493.173	3750.1
493.541	3767.94
493.908	3769.2
494.275	3780.87
494.642	3794.77
495.01	3809.97
495.377	3813.31
495.744	3841.15
496.111	3927.44
496.478	4002.49
496.845	4006.77
497.211	4011.81
497.578	4024.67
497.945	4048.67
498.312	4101.47
498.678	4159.29
499.045	4211.52
499.412	4217.29
499.778	4225.54
500.145	4227.36
500.511	4234.84
500.878	4288.72
501.244	4349.18
501.61	4377.21
501.976	4373.4
502.343	4383.07
502.709	4444.48
503.075	4447.38
503.441	4465.63
503.807	4476.77
504.173	4460.45
504.539	4484.06
504.905	4534.44
505.27	4564.02
505.636	4593.36
506.002	4638.13
506.367	4627.82
506.733	4625.25
507.099	4619.05
507.464	4653.88
507.829	4692.78
508.195	4749.32
508.56	4761.35
508.926	4774.51
509.291	4770.57
509.656	4792.6
510.021	4822.72
510.386	4841.92
510.751	4888.21
511.116	4920.24
511.481	4947.3
511.846	4978.1
512.211	4972.07
512.576	4997.59
512.941	4990.98
513.305	5017.33
513.67	5052.83
514.035	5053.86
514.399	5097.59
514.764	5106.56
515.128	5129.31
515.493	5152.28
515.857	5190.15
516.221	5180.62
516.585	5209.2
516.95	5248.65
517.314	5262.35
517.678	5272.9
518.042	5280.02
518.406	5342.5
518.77	5344.59
519.134	5377.08
519.498	5419.51
519.862	5426.84
520.225	5403.42
520.589	5463.44
520.953	5490.89
521.316	5513.94
521.68	5526.39
522.043	5559.73
522.407	5564.44
522.77	5593.12
523.134	5647.4
523.497	5645.89
523.86	5697.6
524.223	5717.91
524.587	5726.95
524.95	5757.37
525.313	5800.01
525.676	5828.04
526.039	5849.62
526.402	5855.91
526.765	5924.59
527.127	5963.92
527.49	5993.87
527.853	6006.69
528.215	5998.1
528.578	6079.8
528.941	6097.21
529.303	6129.47
529.666	6160.57
530.028	6211.76
530.39	6232.07
530.753	6242.67
531.115	6272.03
531.477	6325.47
531.839	6373.28
532.201	6411.19
532.564	6443.88
532.926	6483.35
533.287	6546
533.649	6587.66
534.011	6655.99
534.373	6700.27
534.735	6718.46
535.097	6737.09
535.458	6793.51
535.82	6813.78
536.181	6821.28
536.543	6823.94
536.904	6815.42
537.266	6929.5
537.627	6998.8
537.988	7019.23
538.35	7052.14
538.711	7090.66
539.072	7151.94
539.433	7169.53
539.794	7233.11
540.155	7252.8
540.516	7270.87
540.877	7332.53
541.238	7365.88
541.599	7441.81
541.959	7476.73
542.32	7542.79
542.681	7608.23
543.041	7603.1
543.402	7621.81
543.762	7668.54
544.123	7681.36
544.483	7715.51
544.844	7748.85
545.204	7779.88
545.564	7783.52
545.924	7803.79
546.284	7835.01
546.644	7874.05
547.004	7932.08
547.364	7988.08
547.724	8027.94
548.084	8034.17
548.444	8101.11
548.804	8121.13
549.164	8146.75
549.523	8163.57
549.883	8183.56
550.242	8197.07
550.602	8250.24
550.961	8231.36
551.321	8228.1
551.68	8289.84
552.04	8310.63
552.399	8410.68
552.758	8428.62
553.117	8418
553.476	8530.05
553.835	8551.54
554.194	8573.83
554.553	8545.66
554.912	8535.69
555.271	8592.15
555.63	8646.17
555.989	8720.07
556.347	8738.32
556.706	8770.42
557.065	8765.42
557.423	8795.98
557.782	8842.47
558.14	8848.2
558.499	8894.42
558.857	8934.16
559.215	8911.82
559.573	8910.34
559.932	8984.05
560.29	9059.88
560.648	9098.55
561.006	9136.13
561.364	9174.65
561.722	9164.46
562.08	9204.45
562.438	9168.6
562.795	9253.87
563.153	9291.21
563.511	9266.46
563.868	9326.41
564.226	9397.58
564.583	9433.72
564.941	9397.85
565.298	9476.28
565.656	9514.92
566.013	9506.62
566.37	9560.46
566.727	9679.36
567.085	9786.15
567.442	9873.62
567.799	9956.78
568.156	9962.88
568.513	10030.27
568.87	10123.37
569.226	10309.46
569.583	10582.09
569.94	10667.04
570.297	10723.81
570.653	10659.33
571.01	10755.53
571.366	10963
571.723	11107.85
572.079	11107.31
572.436	11048.64
572.792	10997.62
573.148	11133.54
573.505	11323.99
573.861	11621.73
574.217	11724.82
574.573	11741.54
574.929	11673.05
575.285	11663.21
575.641	11716.51
575.997	11812.31
576.352	11890.12
576.708	11961.01
577.064	12137.6
577.42	12385.83
577.775	12674.33
578.131	12702.42
578.486	12575.56
578.842	12317.44
579.197	12346.27
579.552	12525.74
579.908	12756.45
580.263	12878.98
580.618	12776.18
580.973	12935.29
581.328	13413.23
581.683	13898.16
582.038	14150.83
582.393	13604.8
582.748	13115.15
583.103	12667.44
583.458	12411.46
583.812	12432.92
584.167	12662.35
584.522	12921.35
584.876	13162.78
585.231	13258.03
585.585	13290.5
585.939	13099.14
586.294	12956.37
586.648	12841.17
587.002	12817.09
587.356	13012.4
587.711	13326.7
588.065	13373.45
588.419	13422.88
588.773	13281.5
589.127	13049.72
589.48	12896.06
589.834	12668.29
590.188	12694.66
590.542	12807.3
590.895	12710.53
591.249	12801.37
591.603	12699.12
591.956	12753.64
592.309	12886.91
592.663	13076.59
593.016	13331.61
593.369	13498.26
593.723	13370.68
594.076	13330.97
594.429	13359.21
594.782	13479.51
595.135	13686.35
595.488	13749.81
595.841	13666.24
596.194	13422.28
596.547	13290.17
596.899	13263.76
597.252	13284.87
597.605	13334.48
597.957	13327.37
598.31	13353.25
598.662	13514.16
599.015	13600.64
599.367	13647.37
599.719	13640.24
600.072	13632.19
600.424	13656.52
600.776	13827.44
601.128	13838.55
601.48	13884.12
601.832	13905.18
602.184	13908.97
602.536	13949.94
602.888	14143.92
603.24	14306.42
603.592	14387.65
603.943	14262.3
604.295	14092.2
604.646	13987.35
604.998	13978.72
605.349	13999.97
605.701	14021.25
606.052	14084.41
606.404	14072.91
606.755	14084.9
607.106	14178.22
607.457	14152.74
607.808	14232.22
608.159	14171.32
608.51	14118.92
608.861	14178.92
609.212	14096.67
609.563	14241.33
609.914	14353.88
610.265	14430.7
610.615	14543.06
610.966	14508.87
611.316	14585.35
611.667	14607.61
612.017	14634.86
612.368	14425.1
612.718	14555.43
613.068	14609.57
613.419	14714.67
613.769	14663.98
614.119	14667.04
614.469	14781.59
614.819	14627.22
615.169	14580.98
615.519	14707.39
615.869	14728.34
616.219	14662.48
616.568	14543.59
616.918	14489.07
617.268	14556.23
617.617	14654.77
617.967	14700.2
618.316	14627.86
618.666	14517.77
619.015	14500.78
619.364	14570.21
619.714	14838.43
620.063	14900.11
620.412	14926.33
620.761	14848.38
621.11	14829.49
621.459	14773.76
621.808	14865.46
622.157	14988.73
622.506	15050.43
622.855	15126.8
623.203	15239.98
623.552	15201.65
623.901	15160.14
624.249	15053.06
624.598	15151.88
624.946	15082.41
625.295	14982.11
625.643	15028.25
625.991	15073.38
626.34	15051.46
626.688	15054.32
627.036	15205.69
627.384	15243.16
627.732	15323.72
628.08	15322.69
628.428	15258.89
628.776	15268.83
629.124	15331.47
629.471	15442.53
629.819	15468.76
630.167	15473.69
630.514	15501.1
630.862	15413.52
631.209	15473.84
631.557	15472.21
631.904	15493.47
632.251	15504.18
632.599	15460.98
632.946	15568.87
633.293	15598.83
633.64	15539.67
633.987	15590.83
634.334	15604.11
634.681	15581.45
635.028	15698.85
635.375	15672.54
635.722	15699.98
636.068	15707.35
636.415	15752.81
636.762	15832.68
637.108	15905.26
637.455	15802.59
637.801	15810.38
638.147	15915.83
638.494	15946.77
638.84	16044.15
639.186	15905.4
639.532	15986.3
639.878	16032.53
640.225	16174.27
640.571	16256.27
640.916	16234.43
641.262	16180.57
641.608	16089.1
641.954	16218.41
642.3	16262.59
642.645	16240.04
642.991	16251.54
643.337	16337.83
643.682	16316.91
644.028	16430.93
644.373	16414.49
644.718	16403.34
645.064	16385.3
645.409	16389.65
645.754	16443.18
646.099	16566.77
646.444	16642.36
646.789	16680.64
647.134	16596.82
647.479	16634.69
647.824	16663.05
648.169	16690.12
648.513	16778.92
648.858	16825.38
649.203	16827.55
649.547	16885.59
649.892	16907.32
650.236	16956.62
650.581	16926.84
650.925	16918.78
651.269	16881.11
651.613	16984.9
651.958	17022.73
652.302	17084.98
652.646	16999.96
652.99	16975.86
653.334	17131.85
653.678	17008.35
654.022	17040.55
654.365	17035.46
654.709	17081.17
655.053	17206.15
655.396	17743.25
655.74	24128.38
656.083	33885.48
656.427	39500.47
656.77	38981.78
657.114	29710.26
657.457	22623.43
657.8	19271.07
658.143	17911.19
658.486	17419.09
658.83	17350.08
659.173	17211.21
659.516	17337.93
659.858	17331.03
660.201	17272.48
660.544	17249.84
660.887	17252.25
661.229	17261.51
661.572	17273.03
661.915	17259.81
662.257	17178.64
662.6	17234.48
662.942	17260.06
663.284	17250.19
663.627	17258.07
663.969	17218.27
664.311	17322.46
664.653	17276.71
664.995	17339.26
665.337	17448.03
665.679	17364.42
666.021	17347.63
666.363	17242.4
666.705	17319.68
667.046	17360.53
667.388	17294.26
667.73	17307.1
668.071	17359.41
668.413	17411.02
668.754	17350.94
669.096	17250.78
669.437	17372.56
669.778	17374.16
670.119	17398.61
670.461	17381.39
670.802	17419.21
671.143	17281.37
671.484	17294.72
671.825	17226.37
672.165	17296.24
672.506	17371.59
672.847	17319.29
673.188	17359.22
673.528	17398.39
673.869	17389.21
674.21	17470.71
674.55	17382.37
674.89	17253.68
675.231	17350.72
675.571	17394.65
675.911	17391.27
676.252	17401.86
676.592	17472.53
676.932	17284.2
677.272	17259.54
677.612	17393.17
677.952	17357.43
678.292	17455.92
678.631	17353.03
678.971	17316.66
679.311	17469.31
679.651	17488.36
679.99	17555.25
680.33	17491.13
680.669	17481.45
681.009	17422.48
681.348	17431.56
681.687	17494.9
682.026	17517.77
682.366	17390.01
682.705	17414.48
683.044	17444
683.383	17485.16
683.722	17594.24
684.061	17595.84
684.4	17714.46
684.738	17728.85
685.077	17785.8
685.416	17684.26
685.754	17775.71
686.093	17806.07
686.431	17859.81
686.77	17774.73
687.108	17742.27
687.447	17552.12
687.785	17691.36
688.123	17595.86
688.461	17578.03
688.799	17470.19
689.137	17469.36
689.475	17426.6
689.813	17360.62
690.151	17433.47
690.489	17397.35
690.827	17394.82
691.164	17483.77
691.502	17593.66
691.84	17569.09
692.177	17509.22
692.515	17481.46
692.852	17405.03
693.189	17446.63
693.527	17563.47
693.864	17555.23
694.201	17511.57
694.538	17447.29
694.875	17337.37
695.212	17304.38
695.549	17434.59
695.886	17494.56
696.223	17354.03
696.56	17363.22
696.897	17275.9
697.233	17372.47
697.57	17545.35
697.906	17655.98
698.243	17586.54
698.579	17513.75
698.916	17428.01
699.252	17417.18
699.588	17429.07
699.924	17456.22
700.261	17406.6
700.597	17368.27
700.933	17355.12
701.269	17337.61
701.605	17416.93
701.941	17272.63
702.276	17336.97
702.612	17289.33
702.948	17384.67
703.283	17420.03
703.619	17284.81
703.954	17350.12
704.29	17259.4
704.625	17326.45
704.961	17295.87
705.296	17389.71
705.631	17345.28
705.966	17375.6
706.301	17344.53
706.637	17342.84
706.972	17555.49
707.306	17512.2
707.641	17463.22
707.976	17407.81
708.311	17370.57
708.646	17382.14
708.98	17199.21
709.315	17279.9
709.649	17380.75
709.984	17371.75
710.318	17259.23
710.653	17286.21
710.987	17262.95
711.321	17267.36
711.655	17277.88
711.989	17253.14
712.324	17204.06
712.658	17096.73
712.992	17199.91
713.325	17081.58
713.659	17193.35
713.993	17088.17
714.327	17078.52
714.66	17057.21
714.994	17033.59
715.328	17120.92
715.661	17319.78
715.994	17298.31
716.328	17146.66
716.661	17141.57
716.994	17150.63
717.328	17001.6
717.661	16945.67
717.994	16974.38
718.327	16988.43
718.66	17012.59
718.993	17133.23
719.325	17189.67
719.658	17095.31
719.991	17037.62
720.324	16951.77
720.656	16800.44
720.989	16830.13
721.321	16924.03
721.654	16945.52
721.986	16898.06
722.318	16877.11
722.651	16892.45
722.983	16800.26
723.315	16869.05
723.647	16802.58
723.979	16692.84
724.311	16716.25
724.643	16730.27
724.975	16715.1
725.307	16810.7
725.638	16926.91
725.97	16838.04
726.302	16951.45
726.633	16796.1
726.965	16840.52
727.296	16670.81
727.628	16620.83
727.959	16544.75
728.29	16534.13
728.621	16561.8
728.952	16682.15
729.284	16523.42
729.615	16546.67
729.945	16487.28
730.276	16523.87
730.607	16570.12
730.938	16367.58
731.269	16255.48
731.599	16455.21
731.93	16484.28
732.261	16384.56
732.591	16437.76
732.922	16465.73
733.252	16218.46
733.582	15981.74
733.912	16082.47
734.243	16114.55
734.573	16148.14
734.903	16274.83
735.233	16258.09
735.563	16296.05
735.893	16302.61
736.223	16199.62
736.552	16121.27
736.882	15995.53
737.212	15851.83
737.541	15777.67
737.871	15710.34
738.2	15675.09
738.53	15541.42
738.859	15484.25
739.188	15543.15
739.518	15528.5
739.847	15610.88
740.176	15400.08
740.505	15435.83
740.834	15390.4
741.163	15209.04
741.492	15193.36
741.821	15182.25
742.15	15038.98
742.478	15172.67
742.807	15107.03
743.136	15169.04
743.464	15104.11
743.793	15034.67
744.121	15100.87
744.449	14991.66
744.778	15012.97
745.106	15121.8
745.434	15075.57
745.762	14817.62
746.09	14806.39
746.418	14769.56
746.746	14729.43
747.074	14632.15
747.402	14691.48
747.73	14717.27
748.057	14697.09
748.385	14538.01
748.712	14452.93
749.04	14481.3
749.367	14536.24
749.695	14450.4
750.022	14483.71
750.349	14464.07
750.677	14407.3
751.004	14268.33
751.331	14169.82
751.658	14253.35
751.985	14217.36
752.312	13979.58
752.639	13932.19
752.966	13955.07
753.292	13871.77
753.619	13934.96
753.946	13953.52
754.272	13890.39
754.599	13959.91
754.925	13890.58
755.251	13858.43
755.578	13859.81
755.904	13852.67
756.23	13768.44
756.556	13703.07
756.882	13674.24
757.208	13525.48
757.534	13540.25
757.86	13608.56
758.186	13723.49
758.512	13675.59
758.838	13676.94
759.163	13567.67
759.489	13553.7
759.814	13336.75
760.14	13357.52
760.465	13374.4
760.791	13235.23
761.116	13184.73
761.441	13166.99
761.766	13237.39
762.092	13157.52
762.417	13060.42
762.742	12925.85
763.066	12784.37
763.391	12799.78
763.716	12832
764.041	12898.11
764.366	12776.23
764.69	12648.35
765.015	12645.45
765.339	12714.91
765.664	12800.49
765.988	12817.9
766.312	12608.9
766.637	12373.76
766.961	12287.81
767.285	12301.14
767.609	12232.21
767.933	12076.28
768.257	12223.54
768.581	12217.87
768.905	12343.27
769.229	12301.35
769.552	12312.54
769.876	12387.7
770.2	12283.33
770.523	12168.22
770.847	11996.09
771.17	12041.51
771.493	12200.16
771.817	12275.3
772.14	12052.28
772.463	11877.83
772.786	11804.43
773.109	11698.56
773.432	11737.45
773.755	11590.68
774.078	11526.37
774.401	11521.03
774.724	11362.49
775.046	11352.21
775.369	11330.86
775.692	11286.49
776.014	11162.71
776.336	11057.03
776.659	11161.28
776.981	11157.85
777.303	11142.41
777.626	11044.01
777.948	11005.16
778.27	10981.87
778.592	10991.04
778.914	11006.26
779.236	10949.02
779.557	11001.73
779.879	11082.24
780.201	11097.56
780.523	11089.85
780.844	11011.21
781.166	11093.25
781.487	11160.98
781.809	11035.91
782.13	11057.74
782.451	11012.74
782.772	10974.03
783.094	10891.11
783.415	11000.42
783.736	10978.9
784.057	10967.12
784.378	11018.63
784.698	10984.42
785.019	11022.81
785.34	10852.6
785.661	10971.27
785.981	11071.62
786.302	11136.8
786.622	11127.97
786.943	11163.73
787.263	11013.27
787.583	11005.01
787.903	10999.62
788.224	11059.14
788.544	11086.39
788.864	10911.82
789.184	11039.57
789.504	11103.01
789.824	11213.55
790.143	11188.6
790.463	11141.21
790.783	11048.33
791.102	11065.11
791.422	11111.55
791.741	11012.73
792.061	10933.82
792.38	11024.86
792.699	10996.62
793.019	10983.73
793.338	10951.01
793.657	10972.53
793.976	11237.93
794.295	11237.73
794.614	11211.9
794.933	11099.37
795.252	11029.02
795.57	10999.7
795.889	11019.11
796.208	11025.19
796.526	10877.16
796.845	10787.64
797.163	10705.61
797.482	10778.15
797.8	10760.46
798.118	10805.04
798.436	10809.54
798.754	10712.16
799.073	10664.09
799.391	10719.09
799.708	10795.39
800.026	10796.42
800.344	10703.54
800.662	10703.44
800.98	10641.35
801.297	10607.6
801.615	10540.54
801.932	10546.22
802.25	10599.44
802.567	10548.54
802.884	10521.17
803.202	10414.61
803.519	10307.66
803.836	10357.47
804.153	10303.15
804.47	10367.68
804.787	10303.55
805.104	10239.97
805.421	10212.87
805.737	10176.75
806.054	10148.6
806.371	10152.92
806.687	10183.15
807.004	10122.19
807.32	10074.25
807.637	10069.29
807.953	10116.4
808.269	10057.24
808.585	9909.38
808.902	9745.21
809.218	9661.64
809.534	9650.77
809.85	9648.83
810.165	9623.86
810.481	9639.29
810.797	9596.69
811.113	9587.8
811.428	9572.59
811.744	9647.49
812.059	9583.6
812.375	9458.21
812.69	9437.73
813.006	9419.01
813.321	9400.32
813.636	9414.37
813.951	9416.07
814.266	9402.86
814.581	9325.78
814.896	9256.35
815.211	9139.51
815.526	9152.59
815.841	9162.5
816.155	9227.14
816.47	9182.73
816.784	9140.98
817.099	9058.17
817.413	8970.53
817.728	8983.37
818.042	8932.1
818.356	8996.99
818.67	8971.66
818.985	8891.12
819.299	8792.61
819.613	8761.08
819.926	8667.43
820.24	8666.67
820.554	8744.57
820.868	8773.53
821.182	8642.44
821.495	8573.52
821.809	8450.73
822.122	8419.62
822.436	8415.75
822.749	8425.12
823.062	8432.91
823.376	8467.97
823.689	8374.87
824.002	8358.21
824.315	8345.93
824.628	8424.52
824.941	8384.12
825.254	8298.52
825.566	8253.31
825.879	8290.44
826.192	8213.16
826.504	8158.76
826.817	8155.78
827.129	8135.77
827.442	8061.7
827.754	8107.04
828.066	8085.59
828.379	7985.16
828.691	7948.53
829.003	7970.43
829.315	8051.4
829.627	7998.02
829.939	7946.42
830.251	7948.29
830.562	7905.1
830.874	7915.05
831.186	7873.76
831.497	7878.13
831.809	7856.17
832.12	7869.23
832.432	7769.76
832.743	7693.26
833.054	7655.21
833.365	7685.22
833.676	7719.56
833.988	7708.82
834.299	7625.01
834.61	7494.96
834.92	7475.67
835.231	7421.49
835.542	7379.18
835.853	7425.1
836.163	7450.79
836.474	7445.04
836.784	7319.08
837.095	7237.61
837.405	7197.44
837.715	7154.45
838.026	7168.33
838.336	7199.64
838.646	7157.98
838.956	7050.39
839.266	7047.12
839.576	7030.9
839.886	7048.44
840.195	7136.28
840.505	7121.44
840.815	7047.21
841.124	6925.82
841.434	6874.17
841.743	6821.87
842.053	6819.91
842.362	6805.61
842.671	6814.97
842.981	6813.2
843.29	6725.06
843.599	6682.97
843.908	6655.3
844.217	6549.83
844.526	6590.7
844.835	6601.22
845.143	6564.43
845.452	6486.21
845.761	6545.17
846.069	6402.81
846.378	6369.71
846.686	6334.3
846.995	6322.11
847.303	6298.34
847.611	6300.49
847.919	6230.68
848.227	6173.47
848.535	6081.28
848.843	6056.99
849.151	6002.27
849.459	6039.71
849.767	6050.7
850.075	6031.79
850.382	5989.91
850.69	5974.53
850.998	5961.37
851.305	5959.82
851.612	5947.4
851.92	5916.66
852.227	5917.38
852.534	5910.99
852.841	5821.15
853.148	5814.17
853.455	5851.37
853.762	5875.29
854.069	5897.85
854.376	5876.76
854.683	5807.06
854.99	5735.19
855.296	5662.51
855.603	5617.51
855.909	5619.93
856.216	5614.44
856.522	5637.07
856.828	5605.8
857.135	5595.73
857.441	5536.02
857.747	5480.21
858.053	5482.04
858.359	5413.6
858.665	5440.25
858.971	5409.59
859.276	5408.39
859.582	5366.6
859.888	5354.78
860.193	5310.33
860.499	5277.83
860.804	5285.68
861.11	5258.62
861.415	5264.44
861.72	5245.24
862.026	5127.7
862.331	5051.24
862.636	5002.06
862.941	4975.42
863.246	4967.6
863.551	5000.93
863.855	5021.34
864.16	5028.48
864.465	4972.03
864.769	4901.05
865.074	4842.1
865.378	4816.8
865.683	4827.82
865.987	4890.69
866.291	4844.08
866.596	4828.93
866.9	4764.85
867.204	4745.82
867.508	4711.76
867.812	4703.4
868.116	4707.21
868.42	4700.61
868.723	4658.9
869.027	4627.7
869.331	4574.71
869.634	4533.81
869.938	4478.82
870.241	4471.59
870.544	4466.55
870.848	4472.3
871.151	4456.76
871.454	4448.21
871.757	4442.55
872.06	4425.14
872.363	4377.75
872.666	4376.4
872.969	4360.8
873.272	4362.05
873.574	4343.47
873.877	4347.77
874.18	4308
874.482	4245.6
874.785	4184.11
875.087	4120.34
875.389	4125.33
875.692	4162.61
875.994	4158.28
876.296	4141.98
876.598	4096.26
876.9	4007.12
877.202	3941.62
877.504	3921.4
877.805	3942.58
878.107	3989.93
878.409	3990.8
878.71	4016.88
879.012	3996.78
879.313	3923.81
879.615	3887.91
879.916	3826.64
880.217	3823.01
880.518	3810.26
880.82	3784.36
881.121	3746.57
881.422	3740.01
881.723	3706.19
882.023	3679.57
882.324	3659.5
882.625	3608.73
882.926	3590.92
883.226	3623.42
883.527	3601.79
883.827	3595.7
884.128	3570.28
884.428	3546.84
884.728	3493.22
885.028	3479.05
885.328	3470.11
885.629	3456.29
885.929	3478.71
886.228	3466.09
886.528	3423.29
886.828	3394.01
887.128	3371.57
887.427	3327.34
887.727	3302.74
888.027	3280.19
888.326	3275.46
888.625	3287.42
888.925	3268.52
889.224	3284.83
889.523	3241.01
889.822	3208.71
890.121	3180.33
890.42	3152.04
890.719	3161.32
891.018	3140.18
891.317	3169.67
891.616	3180.7
891.914	3159.99
892.213	3118.38
892.512	3081.75
892.81	3056.13
893.108	3057.15
893.407	3080.67
893.705	3102.9
894.003	3108.57
894.301	3107.95
894.599	3103.51
894.897	3108.03
895.195	3078.52
895.493	3040.77
895.791	3071.3
896.089	3076.33
896.386	3071.74
896.684	3096.01
896.981	3096.14
897.279	3080.7
897.576	3090.31
897.874	3054.6
898.171	3054.79
898.468	3048.89
898.765	3036.49
899.062	3079.72
899.359	3084.87
899.656	3059.06
899.953	3015.54
900.25	2984.6
900.547	2935.6
900.843	2908.71
901.14	2905.28
901.436	2928
901.733	2958.13
902.029	2965.64
902.325	2975.22
902.622	2943.84
902.918	2933.9
903.214	2913.6
903.51	2879.66
903.806	2890.1
904.102	2920.2
904.398	2934.01
904.694	2941.42
904.989	2947.42
905.285	2902.16
905.581	2868.05
905.876	2869.52
906.171	2861.4
906.467	2857.99
906.762	2866.67
907.057	2860.42
907.353	2877.68
907.648	2887.76
907.943	2888.79
908.238	2864.37
908.533	2819.42
908.827	2798.92
909.122	2786.33
909.417	2798.96
909.711	2818.08
910.006	2838.27
910.301	2805.85
910.595	2787.3
910.889	2780.72
911.184	2743.05
911.478	2742.29
911.772	2741.48
912.066	2718.3
912.36	2691.73
912.654	2680.41
912.948	2689.42
913.242	2710.63
913.536	2699.59
913.829	2692.02
914.123	2673.69
914.416	2624.72
914.71	2619.76
915.003	2630.53
915.297	2615.29
915.59	2609.44
915.883	2622.71
916.176	2632.8
916.469	2603.61
916.762	2570.85
917.055	2527.42
917.348	2493.31
917.641	2484.37
917.934	2470.92
918.226	2468.73
918.519	2460.46
918.811	2458.38
919.104	2454.89
919.396	2427.24
919.689	2409.63
919.981	2398.73
920.273	2395.24
920.565	2398.69
920.857	2383.21
921.149	2366.97
921.441	2361.65
921.733	2350.29
922.025	2327.32
922.316	2304.47
922.608	2279.23
922.9	2240.18
923.191	2221.07
923.483	2224.1
923.774	2211.97
924.065	2226.41
924.357	2232.77
924.648	2212.18
924.939	2204.32
925.23	2195.98
925.521	2186.4
925.812	2169.19
926.102	2146.14
926.393	2130.27
926.684	2133.41
926.975	2128.42
927.265	2114.98
927.556	2113.56
927.846	2102.52
928.136	2091.15
928.427	2070.91
928.717	2048.53
929.007	2028.51
929.297	1992.37
929.587	1976.33
929.877	1971.16
930.167	1967.32
930.457	1958.6
930.746	1928.83
931.036	1902.68
931.325	1869.05
931.615	1846.13
931.904	1832.14
932.194	1812.58
932.483	1816.45
932.772	1828.48
933.062	1835.62
933.351	1828.45
933.64	1797.46
933.929	1788.11
934.218	1766.21
934.506	1756.82
934.795	1747.52
935.084	1733.53
935.372	1709.54
935.661	1698.39
935.949	1686.3
936.238	1685.75
936.526	1666.86
936.815	1653.02
937.103	1650.14
937.391	1652.97
937.679	1645.87
937.967	1643.29
938.255	1630.23
938.543	1630.11
938.831	1614.93
939.118	1601.84
939.406	1582.63
939.693	1561.05
939.981	1536.8
940.268	1524.25
940.556	1502.32
940.843	1499.86
941.13	1500.67
941.418	1498.6
941.705	1485.51
941.992	1465.38
942.279	1450.12
942.566	1426.26
942.852	1407.81
943.139	1398.98
943.426	1384.95
943.712	1381.79
943.999	1383.51
944.285	1390.05
944.572	1388.42
944.858	1383.87
945.144	1377.28
945.431	1360.67
945.717	1346.46
946.003	1330.87
946.289	1314.32
946.575	1301.58
946.861	1293.68
947.146	1290.43
947.432	1288.76
947.718	1285.16
948.003	1281.88
948.289	1280.04
948.574	1267.91
948.86	1252.25
949.145	1239.86
949.43	1219
949.715	1204
950	1193.78
950.285	1194
950.57	1192.57
950.855	1192.06
951.14	1181.84
951.425	1178.27
951.709	1166.42
951.994	1153.82
952.278	1143.94
952.563	1128.54
952.847	1113.6
953.132	1113.23
953.416	1118.03
953.7	1116.14
953.984	1113.3
954.268	1108.86
954.552	1107.78
954.836	1095.4
955.12	1084.72
955.404	1076.41
955.687	1066.15
955.971	1055.92
956.254	1050.46
956.538	1040.61
956.821	1036.51
957.105	1032.78
957.388	1034.45
957.671	1026.1
957.954	1024.26
958.237	1012.06
958.52	999.83
958.803	988.59
959.086	979.26
959.369	973.88
959.652	965.31
959.934	964.14
960.217	964.64
960.499	962.21
960.782	952.98
961.064	944.71
961.346	935.76
961.629	921.92
961.911	910.04
962.193	905.53
962.475	901.86
962.757	899.59
963.039	896.43
963.32	894.38
963.602	887.88
963.884	882.97
964.165	877.89
964.447	873.07
964.728	862.29
965.01	857.14
965.291	846.07
965.572	837.8
965.853	834.14
966.134	828.86
966.415	824.42
966.696	821.86
966.977	813.9
967.258	811.75
967.539	802.68
967.819	799.38
968.1	788.13
968.38	782.21
968.661	777.42
968.941	771.51
969.222	768.94
969.502	764.78
969.782	765.08
970.062	759.7
970.342	757.99
970.622	752.8
970.902	748.77
971.182	742.61
971.462	732.99
971.741	728.51
972.021	721.25
972.3	717.36
972.58	714.92
972.859	707.71
973.138	706.65
973.418	705.17
973.697	700.02
973.976	697.08
974.255	692.29
974.534	685.92
974.813	676.83
975.092	669.21
975.37	664.62
975.649	661.82
975.928	658.49
976.206	658.9
976.485	654.12
976.763	653.98
977.041	649.86
977.32	646.46
977.598	640.95
977.876	639.83
978.154	634.61
978.432	628.34
978.71	625.62
978.988	620.03
979.265	620.23
979.543	619.12
979.821	616.21
980.098	614.6
980.376	606.21
980.653	601.96
980.93	598.55
981.208	591.36
981.485	587.65
981.762	584.77
982.039	581.27
982.316	577.09
982.593	576.26
982.87	576.13
983.146	573.44
983.423	570.01
983.7	570.23
983.976	565.2
984.253	561.13
984.529	558.56
984.805	552.45
985.082	551.02
985.358	545.28
985.634	546.45
985.91	543.12
986.186	541.2
986.462	539.72
986.738	537.43
987.013	532.63
987.289	531.02
987.565	527.78
987.84	521.68
988.116	516.85
988.391	512.62
988.666	510.95
988.942	508.94
989.217	508.26
989.492	506.38
989.767	502.41
990.042	503.22
990.317	497.73
990.592	497.62
990.866	494
991.141	492.21
991.416	490.98
991.69	486.75
991.964	484.77
992.239	479.28
992.513	476.73
992.787	475.61
993.062	471.97
993.336	474.01
993.61	472.33
993.884	470.55
994.158	470.43
994.431	467.74
994.705	466.02
994.979	464.53
995.252	458.05
995.526	459.15
995.799	456.25
996.073	450.27
996.346	452.86
996.619	449.15
996.892	448.45
997.165	447.5
997.438	445.35
997.711	442.07
997.984	440.25
998.257	439.35
998.53	435.34
998.802	431.54
999.075	433.95
999.347	430.81
999.62	427.39
999.892	425.64
1000.165	427.39
1000.437	425.5
1000.709	424.93
1000.981	424.78
1001.253	423.61
1001.525	421.22
1001.797	421.82
1002.068	419.22
1002.34	416.49
1002.612	415.88
1002.883	412.37
1003.155	410.64
1003.426	409.01
1003.698	409.28
1003.969	407.55
1004.24	406.24
1004.511	404.65
1004.782	405.13
1005.053	404.03
1005.324	402.69
1005.595	400.92
1005.866	400.31
1006.136	399.18
1006.407	397.81
1006.678	396.87
1006.948	398.72
1007.218	395.71
1007.489	394.7
1007.759	392.62
1008.029	392.95
1008.299	390.11
1008.569	390.75
1008.839	388.63
1009.109	389.48
1009.379	387.78
1009.649	384.61
1009.918	385.66
1010.188	381.74
1010.458	381.81
1010.727	383.66
1010.996	383.61
1011.266	382.49
1011.535	382.4
1011.804	380.01
1012.073	378.68
1012.342	378.23
1012.611	377.35
1012.88	376.81
1013.149	375.17
1013.417	373.93
1013.686	376.13
1013.955	372.66
1014.223	373.28
1014.492	371.3
1014.76	371.28
1015.028	372.27
1015.296	370.14
1015.565	368.08
1015.833	369.22
1016.101	369.68
1016.368	366.3
1016.636	368.54
1016.904	368.39
1017.172	367.29
1017.439	365.04
1017.707	367.22
1017.974	364.47
1018.242	366.58
1018.509	365.58
1018.776	364.41
1019.044	365.7
1019.311	364.03
1019.578	365.65
1019.845	362.11
1020.112	363.62
1020.378	363.62
1020.645	363.62
