Data from 190411_Ar_Darkcount_36K_FLMS138901_15-06-15-313.txt Node
Date: Thu Apr 11 15:06:15 EDT 2019
User: pSAM
Spectrometer: FLMS13890
Trigger mode: 0
Integration Time (sec): 7.000000E-3
Scans to average: 1000
Electric dark correction enabled: true
Nonlinearity correction enabled: false
Boxcar width: 0
XAxis mode: Wavelengths
Number of Pixels in Spectrum: 2048
>>>>>Begin Spectral Data<<<<<
342.097	-46.06
342.483	-46.06
342.868	-46.06
343.254	-91.54
343.639	-94.56
344.025	-95.61
344.41	-92.67
344.796	-86.32
345.181	-77.2
345.567	-63.78
345.952	-53.53
346.337	-36.26
346.722	-17.66
347.107	-1.66
347.493	17.54
347.878	36.11
348.263	54.64
348.648	75.38
349.033	95.34
349.418	113.95
349.802	131.72
350.187	152.4
350.572	169.08
350.957	185.27
351.342	201.67
351.726	217.6
352.111	231.46
352.495	245.65
352.88	258.85
353.264	269.95
353.649	280.54
354.033	292.06
354.418	300.52
354.802	309.67
355.186	317.8
355.57	323.34
355.955	332.17
356.339	332.98
356.723	337.49
357.107	343.45
357.491	343.94
357.875	345.3
358.259	346.45
358.643	349.63
359.026	348.65
359.41	348.98
359.794	348.95
360.178	348.59
360.561	347.98
360.945	346.35
361.329	345.65
361.712	344.46
362.096	339.57
362.479	338.46
362.862	338.81
363.246	335.96
363.629	335.59
364.012	334.66
364.396	335.04
364.779	330.98
365.162	331.47
365.545	327.99
365.928	325.12
366.311	323.62
366.694	323.7
367.077	323.36
367.46	320.87
367.843	320.95
368.226	320.67
368.608	319.99
368.991	317.8
369.374	317.66
369.756	318.5
370.139	318.57
370.521	317.83
370.904	318.27
371.286	317.18
371.669	318.02
372.051	319.07
372.433	317.26
372.816	318.93
373.198	319.21
373.58	318.78
373.962	318.83
374.344	318.5
374.726	321.44
375.108	320.85
375.49	321.57
375.872	321.95
376.254	322.05
376.636	322.69
377.018	321.72
377.399	324.02
377.781	324.93
378.163	323.31
378.544	326.55
378.926	327.19
379.307	325.54
379.689	325.96
380.07	328.4
380.452	327.2
380.833	328.21
381.214	327.98
381.596	329.14
381.977	330.64
382.358	331.04
382.739	330.69
383.12	331.07
383.501	332.85
383.882	332.77
384.263	332.24
384.644	333.67
385.025	334.4
385.406	334.4
385.787	335.88
386.167	333.96
386.548	334.2
386.929	334.93
387.309	337.39
387.69	335.84
388.07	336.99
388.451	336.21
388.831	335.66
389.211	338.38
389.592	337.95
389.972	338.99
390.352	337.52
390.733	338.13
391.113	338.42
391.493	340
391.873	339.09
392.253	339.96
392.633	342.21
393.013	342.35
393.393	339.87
393.772	338.24
394.152	341.46
394.532	340.57
394.912	340.67
395.291	344.75
395.671	343.38
396.05	342.84
396.43	344.57
396.809	342.08
397.189	344.38
397.568	344.35
397.948	344.77
398.327	345.25
398.706	342.86
399.085	345.15
399.465	345.83
399.844	345.73
400.223	344.46
400.602	346.23
400.981	346.12
401.36	346.06
401.739	348.08
402.117	348.17
402.496	349.58
402.875	348.71
403.254	347.98
403.632	349.08
404.011	350.5
404.39	349.33
404.768	349.25
405.147	350.23
405.525	350.75
405.903	349.42
406.282	351.11
406.66	351.5
407.038	350.54
407.417	350.05
407.795	351.28
408.173	351.92
408.551	353.1
408.929	350.92
409.307	351.91
409.685	351.79
410.063	352.95
410.441	354.93
410.818	353.19
411.196	353.49
411.574	355.04
411.952	354.07
412.329	353.94
412.707	354.46
413.084	355.21
413.462	356.87
413.839	354.74
414.217	355.31
414.594	354.94
414.971	356.23
415.349	355.46
415.726	357.53
416.103	357.22
416.48	357.75
416.857	358.74
417.234	358.24
417.611	358.14
417.988	357.53
418.365	359.36
418.742	358.34
419.119	359.93
419.495	357.59
419.872	359.03
420.249	367.22
420.625	359.01
421.002	360.44
421.379	362.32
421.755	360.09
422.131	360.94
422.508	360.02
422.884	362.38
423.26	362
423.637	362.62
424.013	361.91
424.389	361.9
424.765	362.34
425.141	360.99
425.517	361.45
425.893	362.97
426.269	361.88
426.645	363.09
427.021	363.13
427.397	362.85
427.772	364.76
428.148	363
428.524	364.97
428.899	363.21
429.275	364.56
429.651	365.16
430.026	365.85
430.401	365.06
430.777	363.6
431.152	365.18
431.527	363.22
431.903	365.2
432.278	367.82
432.653	365.51
433.028	365.35
433.403	365.32
433.778	366.1
434.153	367.72
434.528	373.45
434.903	375.71
435.278	380.57
435.653	375.52
436.027	372.47
436.402	371.04
436.777	370.92
437.151	366.78
437.526	367.24
437.9	368.61
438.275	369.38
438.649	366.87
439.023	368.78
439.398	368.19
439.772	369.39
440.146	367.87
440.52	367.98
440.895	368.61
441.269	369.26
441.643	367.9
442.017	368.34
442.391	369.05
442.765	371.14
443.138	370.72
443.512	369.47
443.886	369.07
444.26	369.91
444.633	369.79
445.007	367.59
445.38	368.3
445.754	370.08
446.127	371.57
446.501	371.95
446.874	371.32
447.248	370.2
447.621	373.66
447.994	371.83
448.367	371.61
448.741	371.84
449.114	370.26
449.487	372.29
449.86	371.58
450.233	372.93
450.606	372.21
450.978	371.16
451.351	391.16
451.724	372.66
452.097	374.12
452.469	373.04
452.842	372.47
453.215	373.2
453.587	373.42
453.96	371.93
454.332	373.91
454.704	371.5
455.077	372.16
455.449	372.99
455.821	372.58
456.194	373.5
456.566	374.19
456.938	372.79
457.31	373.28
457.682	375.16
458.054	376.37
458.426	374.63
458.798	374.44
459.17	374.65
459.541	373.84
459.913	374.24
460.285	373.79
460.656	374.47
461.028	374.22
461.399	374.4
461.771	373.75
462.142	374.06
462.514	374.78
462.885	376.41
463.256	376.03
463.628	375.48
463.999	374.24
464.37	375.44
464.741	373.7
465.112	376.33
465.483	376.13
465.854	373.63
466.225	376.55
466.596	373.73
466.967	373.73
467.338	374.78
467.708	376.98
468.079	373.67
468.45	374.87
468.82	374.21
469.191	373.84
469.561	375.45
469.932	375.69
470.302	375.89
470.673	378.27
471.043	375.17
471.413	377.08
471.783	377.88
472.154	376.4
472.524	375.02
472.894	375.93
473.264	374.75
473.634	376.26
474.004	375.53
474.374	375.94
474.743	375.37
475.113	375.15
475.483	378.37
475.853	377.39
476.222	376.41
476.592	376.86
476.961	375.16
477.331	375.02
477.7	376.82
478.07	377.22
478.439	377.79
478.808	376.1
479.178	375.51
479.547	377.15
479.916	377.5
480.285	376.02
480.654	376.58
481.023	378.27
481.392	376.65
481.761	378.04
482.13	376.83
482.499	379.88
482.867	378.11
483.236	376.73
483.605	380.15
483.973	380.16
484.342	379.18
484.71	380.7
485.079	380.16
485.447	382.98
485.816	382.4
486.184	381.9
486.552	382.66
486.921	382.15
487.289	381.47
487.657	383.98
488.025	381.82
488.393	383.07
488.761	382.25
489.129	382.2
489.497	384.33
489.865	381.25
490.233	383.28
490.6	380.27
490.968	380.24
491.336	382.02
491.703	382.89
492.071	381.52
492.438	382.69
492.806	381.64
493.173	380.42
493.541	381.88
493.908	381.26
494.275	378.92
494.642	379.17
495.01	379.87
495.377	380.17
495.744	379.67
496.111	379.63
496.478	380.06
496.845	378.52
497.211	377.35
497.578	379.89
497.945	379.96
498.312	378.16
498.678	377.65
499.045	379.13
499.412	376.25
499.778	377.18
500.145	377.9
500.511	379.15
500.878	379.57
501.244	378.59
501.61	378.3
501.976	376.33
502.343	377.81
502.709	377.27
503.075	377
503.441	378.15
503.807	376.41
504.173	377.69
504.539	376.27
504.905	378.06
505.27	376.49
505.636	376
506.002	377.16
506.367	377.23
506.733	375.68
507.099	376.67
507.464	377.54
507.829	378.89
508.195	377.14
508.56	377.39
508.926	377.15
509.291	378.32
509.656	377.73
510.021	377.82
510.386	376.25
510.751	377.74
511.116	376.67
511.481	376.63
511.846	377.68
512.211	376.85
512.576	378.32
512.941	377.34
513.305	373.85
513.67	376.49
514.035	376.58
514.399	376.72
514.764	377.06
515.128	376.6
515.493	376.59
515.857	379.11
516.221	376.58
516.585	376.73
516.95	376.32
517.314	376.99
517.678	377.11
518.042	378.6
518.406	376.66
518.77	376.29
519.134	374.88
519.498	375.65
519.862	378.28
520.225	376.03
520.589	378.14
520.953	374.77
521.316	375
521.68	374.66
522.043	373.96
522.407	375.83
522.77	376.32
523.134	376.46
523.497	374.79
523.86	375.89
524.223	373.1
524.587	377.32
524.95	376.02
525.313	373.9
525.676	376.85
526.039	375.89
526.402	376.42
526.765	374.95
527.127	376.52
527.49	377.04
527.853	374.92
528.215	376.43
528.578	372.75
528.941	373.91
529.303	375.9
529.666	375.53
530.028	374.62
530.39	375.25
530.753	375.37
531.115	377.51
531.477	377.11
531.839	375.05
532.201	376.5
532.564	375.88
532.926	376.49
533.287	377.35
533.649	376.03
534.011	378.55
534.373	374.57
534.735	376.61
535.097	376.84
535.458	376.44
535.82	377
536.181	376.58
536.543	376.56
536.904	377.18
537.266	380.11
537.627	380.21
537.988	381.96
538.35	381.95
538.711	384.56
539.072	382.35
539.433	385.82
539.794	387.83
540.155	391.35
540.516	395.47
540.877	403.65
541.238	413.09
541.599	421.52
541.959	425.48
542.32	428.34
542.681	428.31
543.041	428.47
543.402	427.5
543.762	428.33
544.123	422.05
544.483	421.84
544.844	429.22
545.204	433.47
545.564	434.29
545.924	423.89
546.284	406.02
546.644	397.17
547.004	391
547.364	391.03
547.724	389.9
548.084	390.17
548.444	390.5
548.804	389.09
549.164	387.89
549.523	387.79
549.883	386.67
550.242	383.77
550.602	383.6
550.961	386.44
551.321	385.58
551.68	384.02
552.04	384.63
552.399	381.68
552.758	381.82
553.117	380.96
553.476	378.1
553.835	377.95
554.194	377.68
554.553	376.4
554.912	376.32
555.271	375.58
555.63	373.45
555.989	374.5
556.347	374.17
556.706	374.02
557.065	375
557.423	373.92
557.782	373.52
558.14	376.15
558.499	373.24
558.857	372.8
559.215	373.02
559.573	374.77
559.932	374.37
560.29	373.27
560.648	373.42
561.006	372.78
561.364	373.72
561.722	372.63
562.08	371.74
562.438	374.41
562.795	374.7
563.153	372.7
563.511	373.41
563.868	372.84
564.226	374.28
564.583	371.7
564.941	371.7
565.298	374.46
565.656	374.79
566.013	371.43
566.37	372.64
566.727	371.77
567.085	372.62
567.442	371.91
567.799	373.02
568.156	373.78
568.513	372.71
568.87	372.99
569.226	373.07
569.583	371.97
569.94	373.64
570.297	374.13
570.653	373.62
571.01	373.29
571.366	372.68
571.723	372.34
572.079	372.06
572.436	371.93
572.792	373.46
573.148	372.68
573.505	373.82
573.861	371.85
574.217	372.09
574.573	373.46
574.929	373.62
575.285	375.74
575.641	374.93
575.997	375.97
576.352	376.96
576.708	379.42
577.064	376.03
577.42	375.76
577.775	378.25
578.131	379.83
578.486	378.73
578.842	382.17
579.197	383.52
579.552	384.39
579.908	382.74
580.263	381.53
580.618	378.93
580.973	379.95
581.328	380.92
581.683	378.9
582.038	381.83
582.393	383.8
582.748	385.83
583.103	384.53
583.458	386.45
583.812	383.7
584.167	383.66
584.522	383.15
584.876	380.53
585.231	381.49
585.585	380.78
585.939	382.74
586.294	386.62
586.648	388.29
587.002	389.18
587.356	389.46
587.711	387.14
588.065	384.46
588.419	381.95
588.773	379.76
589.127	380.84
589.48	380.48
589.834	378.93
590.188	380.51
590.542	377.08
590.895	377.14
591.249	379.01
591.603	377.36
591.956	380.95
592.309	380.74
592.663	379.58
593.016	378.73
593.369	377.14
593.723	377.2
594.076	374.52
594.429	375.17
594.782	373.92
595.135	372.71
595.488	373.01
595.841	374.94
596.194	372.98
596.547	371.7
596.899	373.33
597.252	374.19
597.605	372.97
597.957	375.6
598.31	373.91
598.662	376.61
599.015	376.95
599.367	376.74
599.719	375.86
600.072	374.92
600.424	375.16
600.776	372.64
601.128	373.29
601.48	370.97
601.832	371.83
602.184	371.74
602.536	371.63
602.888	372.9
603.24	371.2
603.592	371.58
603.943	372.11
604.295	372.17
604.646	370.58
604.998	373.3
605.349	370.94
605.701	370.6
606.052	370.87
606.404	374.19
606.755	373.43
607.106	373.79
607.457	373.21
607.808	375.13
608.159	376.05
608.51	380.84
608.861	379.49
609.212	384.76
609.563	394.56
609.914	410.97
610.265	434.27
610.615	456.05
610.966	457.36
611.316	444.48
611.667	429.64
612.017	416.34
612.368	405.55
612.718	397.78
613.068	396.21
613.419	394.55
613.769	390.93
614.119	390.24
614.469	386.82
614.819	387.71
615.169	384.33
615.519	382.26
615.869	379.97
616.219	380.68
616.568	377.45
616.918	377.42
617.268	377.43
617.617	378.4
617.967	378.36
618.316	377.74
618.666	376.98
619.015	378.38
619.364	377.39
619.714	379.01
620.063	380.17
620.412	378.71
620.761	379.46
621.11	378.25
621.459	378.07
621.808	377.41
622.157	378.59
622.506	376.64
622.855	375.58
623.203	374.88
623.552	376.99
623.901	375.09
624.249	375.61
624.598	374.82
624.946	375.5
625.295	376.27
625.643	373.57
625.991	373.44
626.34	373.73
626.688	372.83
627.036	372.33
627.384	374.61
627.732	373.12
628.08	371.35
628.428	374.1
628.776	373.94
629.124	373.56
629.471	374.11
629.819	377.42
630.167	380.43
630.514	380.44
630.862	378.89
631.209	376.03
631.557	375.1
631.904	372.78
632.251	370.91
632.599	370.74
632.946	370.1
633.293	369.81
633.64	368.34
633.987	368.71
634.334	369.15
634.681	368.84
635.028	368.04
635.375	367.98
635.722	367.29
636.068	367.97
636.415	366.79
636.762	369.49
637.108	369.17
637.455	369.18
637.801	368.05
638.147	368.69
638.494	368.69
638.84	368.83
639.186	369.05
639.532	367.62
639.878	370.23
640.225	368.94
640.571	368.7
640.916	366.32
641.262	367.12
641.608	367.36
641.954	368.16
642.3	367.57
642.645	367.54
642.991	369.88
643.337	367.57
643.682	365.93
644.028	365.08
644.373	368.53
644.718	368.12
645.064	368.84
645.409	368.36
645.754	370.74
646.099	369.16
646.444	366.96
646.789	364.67
647.134	366.97
647.479	366.91
647.824	369.6
648.169	366.64
648.513	368.6
648.858	368.47
649.203	368.67
649.547	369.71
649.892	370.11
650.236	368.99
650.581	370.79
650.925	369.6
651.269	369.61
651.613	369.77
651.958	367.86
652.302	367.28
652.646	368.19
652.99	366.75
653.334	369.08
653.678	368.56
654.022	367.75
654.365	366.96
654.709	365.37
655.053	366.4
655.396	366.96
655.74	365.59
656.083	366.64
656.427	364.84
656.77	366.41
657.114	366.86
657.457	366.9
657.8	367.88
658.143	366.02
658.486	368.67
658.83	367.25
659.173	366.34
659.516	366.4
659.858	366.78
660.201	365.15
660.544	367.36
660.887	366.41
661.229	367.94
661.572	368.28
661.915	367.79
662.257	367.41
662.6	367.19
662.942	367.24
663.284	366.92
663.627	368.48
663.969	365.91
664.311	366.89
664.653	366.59
664.995	367.64
665.337	370.2
665.679	367.78
666.021	365.78
666.363	366.64
666.705	368.56
667.046	367.09
667.388	367.28
667.73	368.31
668.071	366.25
668.413	368.22
668.754	367.12
669.096	366.81
669.437	367.36
669.778	366.86
670.119	366.42
670.461	366.78
670.802	367.76
671.143	367.25
671.484	366.86
671.825	365.69
672.165	366.81
672.506	368.96
672.847	368
673.188	367.53
673.528	365.78
673.869	366.84
674.21	366.69
674.55	365.89
674.89	366.74
675.231	364.67
675.571	364.69
675.911	367.09
676.252	365.86
676.592	368.44
676.932	364.9
677.272	366.09
677.612	365.78
677.952	366.74
678.292	366
678.631	367.45
678.971	365.2
679.311	366.75
679.651	369.24
679.99	367.99
680.33	365.53
680.669	366.38
681.009	365.31
681.348	365.49
681.687	363.83
682.026	366.92
682.366	366.04
682.705	364.52
683.044	365.44
683.383	364.47
683.722	365.5
684.061	365.88
684.4	366.2
684.738	366.67
685.077	363.83
685.416	365.51
685.754	365.93
686.093	365.65
686.431	365.87
686.77	365.56
687.108	365.76
687.447	367.73
687.785	367.14
688.123	365.81
688.461	367.51
688.799	365.06
689.137	365.94
689.475	365
689.813	365.58
690.151	366.73
690.489	364.54
690.827	363.79
691.164	365.07
691.502	362.19
691.84	364.11
692.177	365.13
692.515	365.15
692.852	365.25
693.189	366.24
693.527	364.86
693.864	368.39
694.201	364.56
694.538	365.37
694.875	365.17
695.212	364.48
695.549	363.81
695.886	363.34
696.223	364.68
696.56	366
696.897	366.45
697.233	366.85
697.57	363.14
697.906	364.65
698.243	362.94
698.579	362.84
698.916	365.42
699.252	364.34
699.588	362.92
699.924	364.27
700.261	365.29
700.597	364.72
700.933	364.74
701.269	363.39
701.605	365.23
701.941	363.51
702.276	365.24
702.612	365.58
702.948	364.99
703.283	367.18
703.619	364.09
703.954	365.07
704.29	363.87
704.625	363.64
704.961	364.58
705.296	366.9
705.631	366.2
705.966	365.56
706.301	366.76
706.637	366.64
706.972	367.59
707.306	366.4
707.641	367.9
707.976	367.03
708.311	366.41
708.646	367.47
708.98	367.32
709.315	367.31
709.649	366.63
709.984	364.72
710.318	366.59
710.653	365.41
710.987	364.32
711.321	367.7
711.655	365.63
711.989	367.47
712.324	366.69
712.658	367.47
712.992	366.69
713.325	363.36
713.659	365.83
713.993	365.59
714.327	364.02
714.66	363.66
714.994	363.8
715.328	364.39
715.661	366.44
715.994	362.52
716.328	364.16
716.661	361.81
716.994	365.18
717.328	364.26
717.661	364.16
717.994	362.89
718.327	362.55
718.66	364.11
718.993	363.99
719.325	364.7
719.658	362.9
719.991	363.83
720.324	363.98
720.656	364.62
720.989	364.54
721.321	363.76
721.654	364.87
721.986	361.81
722.318	364.34
722.651	363.37
722.983	362.82
723.315	363.43
723.647	362.96
723.979	362.76
724.311	361.99
724.643	363.09
724.975	364.55
725.307	364.43
725.638	363.61
725.97	363.84
726.302	364.64
726.633	365.34
726.965	363.83
727.296	362.99
727.628	361.88
727.959	365.92
728.29	363.93
728.621	362.04
728.952	362.57
729.284	361.7
729.615	362.5
729.945	363.3
730.276	362.47
730.607	363.37
730.938	361.92
731.269	362.37
731.599	361.46
731.93	362.41
732.261	362.94
732.591	364.67
732.922	363.35
733.252	362.35
733.582	362.95
733.912	363.33
734.243	366.26
734.573	363.69
734.903	364.86
735.233	363.91
735.563	361.16
735.893	362.79
736.223	362.12
736.552	363.62
736.882	363.92
737.212	363.19
737.541	360.78
737.871	365.02
738.2	362.86
738.53	363.04
738.859	362.95
739.188	363.24
739.518	361.19
739.847	363.97
740.176	361.52
740.505	363.41
740.834	361.54
741.163	364.43
741.492	363.24
741.821	364.54
742.15	363.14
742.478	362.61
742.807	362.85
743.136	360.7
743.464	362.68
743.793	362.8
744.121	363.34
744.449	362.81
744.778	360.98
745.106	365.79
745.434	363.41
745.762	361.56
746.09	361.68
746.418	361.88
746.746	360.59
747.074	363.24
747.402	362.59
747.73	361.3
748.057	360.6
748.385	362.66
748.712	363.57
749.04	362.93
749.367	364.16
749.695	362.34
750.022	361.57
750.349	362.74
750.677	362.35
751.004	362.11
751.331	361.4
751.658	363.55
751.985	363.1
752.312	362.25
752.639	360.57
752.966	361.27
753.292	363.66
753.619	360.66
753.946	361.86
754.272	362.74
754.599	362.42
754.925	361.77
755.251	364.55
755.578	361.01
755.904	361.89
756.23	363.81
756.556	361.09
756.882	359.73
757.208	360.62
757.534	361.74
757.86	362.82
758.186	362.5
758.512	361.09
758.838	360.42
759.163	363.41
759.489	363.22
759.814	362.12
760.14	362.14
760.465	364.17
760.791	361.19
761.116	361.82
761.441	360.65
761.766	362.7
762.092	361.47
762.417	362.14
762.742	362.98
763.066	364.18
763.391	362.11
763.716	361.72
764.041	361.71
764.366	360.86
764.69	362.07
765.015	363.08
765.339	360.93
765.664	361.36
765.988	361.58
766.312	362.3
766.637	359.92
766.961	360.16
767.285	360.94
767.609	361.53
767.933	360.68
768.257	360.43
768.581	360.31
768.905	362.31
769.229	360.72
769.552	360.1
769.876	360.98
770.2	363.39
770.523	361.81
770.847	362.28
771.17	360.06
771.493	361.77
771.817	361.34
772.14	361.64
772.463	361.16
772.786	360.98
773.109	362.55
773.432	361.13
773.755	363.53
774.078	361.64
774.401	361.24
774.724	362.19
775.046	361.03
775.369	363.2
775.692	360.64
776.014	361
776.336	361.92
776.659	360.54
776.981	360.35
777.303	361.27
777.626	360.45
777.948	361.21
778.27	362.81
778.592	362.95
778.914	361.39
779.236	361.41
779.557	362.44
779.879	361.79
780.201	361.8
780.523	362.43
780.844	360.99
781.166	359.67
781.487	359.3
781.809	362.89
782.13	361.95
782.451	361.68
782.772	360.54
783.094	360.58
783.415	362.51
783.736	360.33
784.057	361.23
784.378	361.79
784.698	360.34
785.019	360.95
785.34	362.65
785.661	361.68
785.981	357.5
786.302	362.58
786.622	362.1
786.943	360.57
787.263	361.6
787.583	360.78
787.903	360.3
788.224	360.78
788.544	361.02
788.864	359.86
789.184	360.24
789.504	359.47
789.824	360.99
790.143	361.21
790.463	362.59
790.783	359.68
791.102	360.52
791.422	358.83
791.741	359.88
792.061	360.46
792.38	359.81
792.699	360.76
793.019	359.79
793.338	361.06
793.657	360.34
793.976	361.42
794.295	360.49
794.614	360.55
794.933	362.82
795.252	361.34
795.57	359.4
795.889	359.62
796.208	361.09
796.526	359.95
796.845	360.78
797.163	361.02
797.482	360.93
797.8	360.55
798.118	362.77
798.436	361.95
798.754	359.97
799.073	361.12
799.391	361.4
799.708	359.49
800.026	359.76
800.344	359.55
800.662	360.82
800.98	359.91
801.297	358.35
801.615	360.87
801.932	358.92
802.25	359.89
802.567	359.46
802.884	361.16
803.202	362.02
803.519	360.51
803.836	358.31
804.153	362.24
804.47	360.88
804.787	359.35
805.104	360.28
805.421	361.25
805.737	360.95
806.054	361.17
806.371	360.26
806.687	360.28
807.004	360.2
807.32	359.51
807.637	361.2
807.953	360.41
808.269	361.2
808.585	361.88
808.902	360.15
809.218	361.56
809.534	360.9
809.85	358.88
810.165	359.96
810.481	361.42
810.797	361.26
811.113	358.44
811.428	361.9
811.744	359.4
812.059	360.67
812.375	359.13
812.69	359.81
813.006	361.06
813.321	359.44
813.636	358.56
813.951	360.24
814.266	359.5
814.581	360.58
814.896	359.53
815.211	361.9
815.526	361.32
815.841	360.58
816.155	359.14
816.47	359.21
816.784	357.87
817.099	361.36
817.413	357.8
817.728	359.58
818.042	358.33
818.356	359.44
818.67	358.77
818.985	361.21
819.299	358.55
819.613	359.51
819.926	358.97
820.24	358.36
820.554	358.59
820.868	359.44
821.182	360.38
821.495	359.58
821.809	361.6
822.122	359.73
822.436	357.69
822.749	360.55
823.062	356.73
823.376	358.79
823.689	359.69
824.002	359.49
824.315	359.31
824.628	358.12
824.941	358.93
825.254	358.66
825.566	358.99
825.879	360.34
826.192	360.26
826.504	359.61
826.817	360.12
827.129	357.73
827.442	358.26
827.754	358.87
828.066	362.16
828.379	358.48
828.691	360.21
829.003	358.14
829.315	358.39
829.627	358.61
829.939	359.54
830.251	360.15
830.562	357.9
830.874	358.99
831.186	359.04
831.497	360.47
831.809	358.87
832.12	358.48
832.432	360.02
832.743	359.23
833.054	360.55
833.365	359.04
833.676	358.9
833.988	358.47
834.299	357.43
834.61	359.12
834.92	358.33
835.231	359.3
835.542	357.21
835.853	360.4
836.163	358.78
836.474	358.93
836.784	356.88
837.095	357.7
837.405	358.24
837.715	359.74
838.026	359.02
838.336	359.68
838.646	358.52
838.956	357.58
839.266	358.58
839.576	360.12
839.886	358.08
840.195	358.26
840.505	360.92
840.815	359.66
841.124	357.86
841.434	359.83
841.743	358.74
842.053	359.82
842.362	358.7
842.671	357.14
842.981	357.35
843.29	359.48
843.599	358.85
843.908	358.31
844.217	359.19
844.526	358.03
844.835	359.39
845.143	358.45
845.452	358.44
845.761	357.89
846.069	358.25
846.378	361.05
846.686	359.26
846.995	357.3
847.303	357.01
847.611	359.02
847.919	357.02
848.227	357.77
848.535	358
848.843	359.76
849.151	357.12
849.459	358.5
849.767	357.03
850.075	357.74
850.382	360.54
850.69	359.26
850.998	359.29
851.305	357.8
851.612	356.25
851.92	358.72
852.227	358.72
852.534	358.83
852.841	357.98
853.148	357.3
853.455	357.83
853.762	358.79
854.069	359.67
854.376	357.93
854.683	357.6
854.99	358.3
855.296	356.77
855.603	356.99
855.909	359.27
856.216	358.58
856.522	359.57
856.828	358.43
857.135	358.73
857.441	357.71
857.747	360.29
858.053	358.5
858.359	356.44
858.665	358.34
858.971	356.86
859.276	358.36
859.582	357.63
859.888	357.7
860.193	358.74
860.499	356.89
860.804	358.6
861.11	357.53
861.415	357.61
861.72	360.02
862.026	357.84
862.331	357.55
862.636	360.2
862.941	357.98
863.246	357.96
863.551	359.63
863.855	358.95
864.16	357.21
864.465	357.54
864.769	358.57
865.074	358.37
865.378	357.15
865.683	358.57
865.987	356.68
866.291	360.52
866.596	358.21
866.9	358.71
867.204	355.9
867.508	356.14
867.812	355.26
868.116	359.48
868.42	357.84
868.723	357.57
869.027	358.69
869.331	358.47
869.634	357.05
869.938	357.49
870.241	357.09
870.544	357.14
870.848	356.26
871.151	356.71
871.454	359.93
871.757	356.29
872.06	357.99
872.363	356.67
872.666	355.57
872.969	356.18
873.272	355.96
873.574	357.24
873.877	356.64
874.18	357.11
874.482	357.81
874.785	356.65
875.087	356.4
875.389	357.43
875.692	357.3
875.994	356.63
876.296	357.61
876.598	355.59
876.9	358.64
877.202	356.36
877.504	359.56
877.805	356.39
878.107	356.64
878.409	356.52
878.71	355.85
879.012	356.52
879.313	356.82
879.615	356.27
879.916	355.9
880.217	356.42
880.518	357.26
880.82	357.28
881.121	357.26
881.422	357.31
881.723	356.08
882.023	357.17
882.324	358.25
882.625	357.92
882.926	355.91
883.226	356.76
883.527	356.51
883.827	357.41
884.128	355.68
884.428	357.71
884.728	355.95
885.028	355.19
885.328	357.49
885.629	356.62
885.929	358
886.228	357.42
886.528	355.84
886.828	357.91
887.128	356.9
887.427	356.03
887.727	356.54
888.027	356.35
888.326	355.89
888.625	355
888.925	356.61
889.224	357.34
889.523	356.09
889.822	357.57
890.121	357.38
890.42	355.8
890.719	356.53
891.018	357.38
891.317	354.97
891.616	355.87
891.914	355.82
892.213	358.22
892.512	355.29
892.81	358.8
893.108	356.43
893.407	356.51
893.705	355.52
894.003	357.39
894.301	356.95
894.599	354.99
894.897	356.35
895.195	357.79
895.493	358.49
895.791	356.02
896.089	355.63
896.386	356.18
896.684	356.15
896.981	356.4
897.279	355.46
897.576	356.88
897.874	356.01
898.171	356.16
898.468	357.53
898.765	355.42
899.062	355.58
899.359	356.3
899.656	355.52
899.953	356.12
900.25	356.74
900.547	357.62
900.843	356.49
901.14	355.88
901.436	357.07
901.733	355.36
902.029	357
902.325	354.56
902.622	355.7
902.918	355.08
903.214	354.58
903.51	355.6
903.806	357.13
904.102	354.26
904.398	355.78
904.694	354.6
904.989	356.8
905.285	358.27
905.581	355.32
905.876	356.83
906.171	357.12
906.467	355.49
906.762	354.84
907.057	354.93
907.353	357.31
907.648	355.12
907.943	354.53
908.238	356.05
908.533	357.85
908.827	356.36
909.122	355.23
909.417	355.95
909.711	356.85
910.006	356.67
910.301	356.82
910.595	355.05
910.889	356.09
911.184	357.75
911.478	355.87
911.772	355.98
912.066	355.21
912.36	354.68
912.654	354.41
912.948	355.32
913.242	355.06
913.536	355.95
913.829	354
914.123	358.04
914.416	355.79
914.71	354.59
915.003	356.85
915.297	355.76
915.59	354.98
915.883	354.8
916.176	354.12
916.469	357.4
916.762	355.35
917.055	355.47
917.348	355.46
917.641	354.69
917.934	356.68
918.226	355.21
918.519	353.35
918.811	356.34
919.104	356.22
919.396	356.9
919.689	355.82
919.981	354.41
920.273	356.26
920.565	357.78
920.857	354.55
921.149	354.98
921.441	356.21
921.733	355.36
922.025	355.23
922.316	357.5
922.608	356.98
922.9	354.21
923.191	354.72
923.483	355.2
923.774	355.47
924.065	354.96
924.357	353.68
924.648	355.17
924.939	356.16
925.23	356.14
925.521	355.85
925.812	355.66
926.102	355.08
926.393	354.01
926.684	354.91
926.975	355.11
927.265	355.59
927.556	356.57
927.846	352.59
928.136	355.48
928.427	354.43
928.717	358.52
929.007	354.91
929.297	354.74
929.587	355.84
929.877	355.33
930.167	353.52
930.457	356.01
930.746	357.09
931.036	355.34
931.325	355.68
931.615	356.21
931.904	355.18
932.194	356.52
932.483	355.58
932.772	354.91
933.062	354.85
933.351	356.38
933.64	354.31
933.929	355.17
934.218	355.54
934.506	354.38
934.795	353.42
935.084	355.74
935.372	356
935.661	352.14
935.949	355.37
936.238	354.36
936.526	353.86
936.815	356.01
937.103	355.84
937.391	353.93
937.679	356.87
937.967	353.92
938.255	354.3
938.543	354.78
938.831	354.6
939.118	354.36
939.406	354.77
939.693	353.97
939.981	354.57
940.268	354.85
940.556	354.05
940.843	354.87
941.13	353.7
941.418	354.46
941.705	354.36
941.992	355.01
942.279	353.36
942.566	353.49
942.852	353.55
943.139	354.97
943.426	356.07
943.712	355.28
943.999	356.46
944.285	355.07
944.572	354.41
944.858	354.92
945.144	353.94
945.431	357.44
945.717	354.86
946.003	354.95
946.289	353.6
946.575	354.55
946.861	353.43
947.146	355.7
947.432	355.1
947.718	355.41
948.003	353.9
948.289	354.67
948.574	353.21
948.86	353.6
949.145	354.85
949.43	356.75
949.715	352.36
950	353.85
950.285	353.54
950.57	353.75
950.855	353.8
951.14	355.16
951.425	355.1
951.709	353.67
951.994	355.81
952.278	355.35
952.563	353.67
952.847	355.69
953.132	354.72
953.416	356.94
953.7	356.47
953.984	353.8
954.268	353.76
954.552	353.4
954.836	353.43
955.12	353.55
955.404	354.75
955.687	352.92
955.971	355.03
956.254	354.29
956.538	354.9
956.821	353.11
957.105	354.89
957.388	354.76
957.671	352.72
957.954	354.22
958.237	353.44
958.52	351.99
958.803	352.79
959.086	355.35
959.369	354.43
959.652	353.99
959.934	353.96
960.217	354.38
960.499	353.55
960.782	354.84
961.064	353.32
961.346	353.5
961.629	352.85
961.911	354.44
962.193	354.01
962.475	352.26
962.757	351.91
963.039	353.82
963.32	351.26
963.602	353.76
963.884	354.81
964.165	353.71
964.447	351.71
964.728	353.41
965.01	355.07
965.291	352.97
965.572	355.07
965.853	352.96
966.134	353.72
966.415	356.5
966.696	354.78
966.977	352.57
967.258	351.64
967.539	351.62
967.819	354.4
968.1	350.95
968.38	355.26
968.661	354.44
968.941	355.02
969.222	354.66
969.502	353.81
969.782	354.33
970.062	352.86
970.342	355.46
970.622	353.16
970.902	354.87
971.182	353.48
971.462	352.33
971.741	353.75
972.021	351.65
972.3	351.71
972.58	352.31
972.859	355.82
973.138	352.78
973.418	353.71
973.697	352.3
973.976	352.28
974.255	354.12
974.534	354.93
974.813	353.03
975.092	355.29
975.37	353.09
975.649	354.34
975.928	353.34
976.206	354.8
976.485	354.56
976.763	354.11
977.041	353.42
977.32	353.96
977.598	353.32
977.876	353.03
978.154	352.93
978.432	352.86
978.71	354.08
978.988	354.49
979.265	352.83
979.543	351.58
979.821	354.49
980.098	350.28
980.376	352.66
980.653	353.69
980.93	353.27
981.208	353.88
981.485	352.19
981.762	353.93
982.039	353.67
982.316	351.57
982.593	353.38
982.87	355.4
983.146	350.84
983.423	351.06
983.7	353.98
983.976	353.02
984.253	352.5
984.529	351.43
984.805	353.85
985.082	352.81
985.358	353.74
985.634	353.83
985.91	353.86
986.186	352.69
986.462	352.83
986.738	354.55
987.013	352.61
987.289	352.86
987.565	353.35
987.84	352.62
988.116	353.34
988.391	351.71
988.666	350.95
988.942	353.49
989.217	352.73
989.492	351.92
989.767	351.45
990.042	353.81
990.317	353.99
990.592	352.41
990.866	353.01
991.141	354.97
991.416	352.95
991.69	352.46
991.964	353.09
992.239	352.01
992.513	353.02
992.787	352.75
993.062	352.6
993.336	353.58
993.61	352.46
993.884	353.27
994.158	353.39
994.431	353.41
994.705	352.53
994.979	351.54
995.252	352.7
995.526	354.24
995.799	351.43
996.073	353.21
996.346	352.86
996.619	354.11
996.892	353.32
997.165	350.97
997.438	351.08
997.711	352.3
997.984	353.51
998.257	353.52
998.53	351.8
998.802	352.37
999.075	352.43
999.347	353.16
999.62	354.72
999.892	350.79
1000.165	352.38
1000.437	352.49
1000.709	352.38
1000.981	354.09
1001.253	352.8
1001.525	352.49
1001.797	351.07
1002.068	352.51
1002.34	351.26
1002.612	354.39
1002.883	353.39
1003.155	352.91
1003.426	352.18
1003.698	352.31
1003.969	353.46
1004.24	352.74
1004.511	355.53
1004.782	353.32
1005.053	350.59
1005.324	351.66
1005.595	353.16
1005.866	352.39
1006.136	352.36
1006.407	351.24
1006.678	352.19
1006.948	349.54
1007.218	352.23
1007.489	351.18
1007.759	351.73
1008.029	351.91
1008.299	352.77
1008.569	352.74
1008.839	350.74
1009.109	353.13
1009.379	351.84
1009.649	350.19
1009.918	351.19
1010.188	351.48
1010.458	350.75
1010.727	352.35
1010.996	351.88
1011.266	353.2
1011.535	352.08
1011.804	352.18
1012.073	354.09
1012.342	350.68
1012.611	352.02
1012.88	350.79
1013.149	352.24
1013.417	352.26
1013.686	352.77
1013.955	354.6
1014.223	353.88
1014.492	350.92
1014.76	351.38
1015.028	352.99
1015.296	354.2
1015.565	351.21
1015.833	351.63
1016.101	352.13
1016.368	350.79
1016.636	353.39
1016.904	354
1017.172	351.11
1017.439	353.04
1017.707	351.8
1017.974	351.1
1018.242	351.31
1018.509	351.29
1018.776	350.39
1019.044	348.81
1019.311	351.72
1019.578	351.85
1019.845	352.06
1020.112	351.79
1020.378	351.79
1020.645	351.79
