Data from 190411_Ar_No_Film_36K_FLMS138901_13-06-50-910.txt Node
Date: Thu Apr 11 13:06:50 EDT 2019
User: pSAM
Spectrometer: FLMS13890
Trigger mode: 0
Integration Time (sec): 7.000000E-3
Scans to average: 1000
Electric dark correction enabled: true
Nonlinearity correction enabled: false
Boxcar width: 0
XAxis mode: Wavelengths
Number of Pixels in Spectrum: 2048
>>>>>Begin Spectral Data<<<<<
342.097	-44.46
342.483	-44.46
342.868	-44.46
343.254	-90.03
343.639	-94.13
344.025	-96.55
344.41	-92.6
344.796	-87.42
345.181	-77.99
345.567	-64.28
345.952	-51.88
346.337	-35.37
346.722	-19.57
347.107	-2.47
347.493	18.11
347.878	38.26
348.263	54.31
348.648	75.86
349.033	94.69
349.418	114.71
349.802	132.18
350.187	152.42
350.572	171.11
350.957	255.1
351.342	453.9
351.726	482.8
352.111	500.7
352.495	516.65
352.88	531.28
353.264	545.02
353.649	561.89
354.033	571.93
354.418	584.11
354.802	592.77
355.186	603.8
355.57	613.89
355.955	619.7
356.339	626.87
356.723	633.37
357.107	642.5
357.491	648.54
357.875	648.33
358.259	651.36
358.643	659.07
359.026	660.07
359.41	663.43
359.794	667.78
360.178	667.91
360.561	667.79
360.945	670.25
361.329	669.98
361.712	671.64
362.096	671.39
362.479	670.53
362.862	674.07
363.246	675.45
363.629	673.14
364.012	674.96
364.396	676.26
364.779	676.43
365.162	679.03
365.545	682.13
365.928	682.94
366.311	685.88
366.694	692.1
367.077	692.87
367.46	692.15
367.843	693.31
368.226	695.45
368.608	695.65
368.991	699.01
369.374	696.01
369.756	697.56
370.139	698.66
370.521	701.15
370.904	705.53
371.286	705.4
371.669	707.81
372.051	708.24
372.433	713.15
372.816	712.6
373.198	715.19
373.58	721.84
373.962	725.04
374.344	727.49
374.726	729.25
375.108	731.7
375.49	731.67
375.872	734.26
376.254	731
376.636	733.14
377.018	738.72
377.399	741.2
377.781	744.61
378.163	750.71
378.544	752.99
378.926	761.5
379.307	763.72
379.689	768.03
380.07	764.52
380.452	768.36
380.833	774.88
381.214	788.01
381.596	794.76
381.977	810.02
382.358	813.02
382.739	812.85
383.12	812.11
383.501	817.54
383.882	818.81
384.263	821.47
384.644	825.09
385.025	831.65
385.406	831.73
385.787	838.55
386.167	846.65
386.548	856.65
386.929	865.21
387.309	875.5
387.69	883.86
388.07	890.66
388.451	883.51
388.831	884.67
389.211	876.78
389.592	874.35
389.972	877.23
390.352	885.04
390.733	894.1
391.113	897.66
391.493	908.18
391.873	928.75
392.253	939.62
392.633	948.08
393.013	946.05
393.393	945.47
393.772	941.86
394.152	952.45
394.532	945.2
394.912	949.34
395.291	949.37
395.671	952.71
396.05	951.42
396.43	957.73
396.809	963.82
397.189	982.29
397.568	996.27
397.948	999.45
398.327	1002.18
398.706	1005.97
399.085	1001.63
399.465	995.83
399.844	987.91
400.223	985.3
400.602	991.63
400.981	993.68
401.36	991.92
401.739	995.88
402.117	1008.56
402.496	1004.61
402.875	1007.46
403.254	1022.37
403.632	1026.71
404.011	1038.92
404.39	1056.61
404.768	1063.85
405.147	1071.68
405.525	1072.12
405.903	1063.79
406.282	1064.85
406.66	1052.26
407.038	1043.33
407.417	1048.37
407.795	1062.65
408.173	1068.48
408.551	1073.34
408.929	1078.59
409.307	1079.64
409.685	1088.53
410.063	1090.65
410.441	1091
410.818	1101.06
411.196	1109.63
411.574	1135.28
411.952	1140.16
412.329	1158.49
412.707	1174.12
413.084	1164.58
413.462	1156.51
413.839	1164.79
414.217	1158.65
414.594	1161.86
414.971	1168.72
415.349	1171.06
415.726	1173.88
416.103	1168.18
416.48	1174.82
416.857	1183.55
417.234	1193.76
417.611	1192.94
417.988	1194.17
418.365	1189.66
418.742	1205.01
419.119	1228.36
419.495	1221.71
419.872	1236.21
420.249	1274.8
420.625	1296.87
421.002	1310.51
421.379	1314.43
421.755	1329.09
422.131	1345.34
422.508	1350.58
422.884	1348.33
423.26	1344.6
423.637	1341.56
424.013	1306.2
424.389	1303.35
424.765	1305.41
425.141	1313.36
425.517	1309.52
425.893	1312.03
426.269	1340.81
426.645	1364.62
427.021	1394.75
427.397	1376.8
427.772	1365.4
428.148	1373.67
428.524	1397.26
428.899	1407.67
429.275	1435.39
429.651	1452.21
430.026	1461.72
430.401	1454.91
430.777	1441.51
431.152	1422.01
431.527	1423.99
431.903	1429.12
432.278	1434.57
432.653	1467.94
433.028	1503.88
433.403	1520.74
433.778	1534.2
434.153	1511.23
434.528	1509.14
434.903	1514.74
435.278	1535.71
435.653	1543.14
436.027	1548.43
436.402	1551.17
436.777	1565.59
437.151	1572.02
437.526	1589.06
437.9	1601.25
438.275	1619.64
438.649	1610.85
439.023	1621.89
439.398	1618.23
439.772	1625.66
440.146	1665.78
440.52	1719.61
440.895	1737.44
441.269	1754.97
441.643	1739.85
442.017	1736.92
442.391	1738.03
442.765	1750.71
443.138	1748.29
443.512	1774.15
443.886	1773.33
444.26	1776.49
444.633	1779.01
445.007	1785.55
445.38	1793.14
445.754	1791.76
446.127	1801.03
446.501	1791.46
446.874	1785.94
447.248	1781.31
447.621	1802.03
447.994	1804.12
448.367	1817.57
448.741	1822.24
449.114	1805.88
449.487	1828.15
449.86	1818.97
450.233	1826.22
450.606	1821.61
450.978	1827.34
451.351	1832.56
451.724	1829.36
452.097	1826.72
452.469	1846.16
452.842	1841.52
453.215	1848.03
453.587	1851.68
453.96	1871.38
454.332	1879.38
454.704	1893.62
455.077	1893.66
455.449	1904.41
455.821	1911.49
456.194	1943.6
456.566	1949.05
456.938	1978.38
457.31	2017.4
457.682	2034.61
458.054	2037.2
458.426	2049.54
458.798	2049.97
459.17	2061.65
459.541	2043.57
459.913	2022.87
460.285	2043.55
460.656	2050.61
461.028	2044.87
461.399	2072.77
461.771	2066.28
462.142	2109.43
462.514	2157.01
462.885	2180.83
463.256	2223.92
463.628	2253.82
463.999	2281.43
464.37	2300.9
464.741	2306.96
465.112	2282.37
465.483	2281.2
465.854	2287.53
466.225	2276.65
466.596	2290.14
466.967	2336.03
467.338	2339.72
467.708	2380.4
468.079	2354.91
468.45	2366.18
468.82	2366.94
469.191	2381.14
469.561	2400.99
469.932	2433.5
470.302	2434.12
470.673	2468.79
471.043	2513.33
471.413	2539.99
471.783	2591.57
472.154	2653.47
472.524	2675.49
472.894	2724.76
473.264	2740.44
473.634	2729.21
474.004	2761.91
474.374	2821.09
474.743	2859.08
475.113	2927.35
475.483	2940.59
475.853	2984.36
476.222	3011.66
476.592	3058.88
476.961	3065.46
477.331	3132.63
477.7	3156.75
478.07	3206.94
478.439	3247.14
478.808	3296.99
479.178	3310.52
479.547	3393.59
479.916	3394.35
480.285	3472.62
480.654	3501.56
481.023	3559.12
481.392	3598.09
481.761	3647.4
482.13	3697.53
482.499	3768.71
482.867	3805.79
483.236	3904
483.605	4011.92
483.973	4051.63
484.342	4238.47
484.71	4813.04
485.079	5291.39
485.447	5533.65
485.816	5236.54
486.184	4868.34
486.552	4605.52
486.921	4483.51
487.289	4447.27
487.657	4473.49
488.025	4497.42
488.393	4541.53
488.761	4629.27
489.129	4689.52
489.497	4717.93
489.865	4796.64
490.233	4816.8
490.6	4851.66
490.968	4847.76
491.336	4915.96
491.703	4959.24
492.071	5028.36
492.438	5067.52
492.806	5089.92
493.173	5166.25
493.541	5174.07
493.908	5174.86
494.275	5203.5
494.642	5225.22
495.01	5301.64
495.377	5358.67
495.744	5421.69
496.111	5462.39
496.478	5463.22
496.845	5493.13
497.211	5520.33
497.578	5608.38
497.945	5670.34
498.312	5741.19
498.678	5760.77
499.045	5805.39
499.412	5777.3
499.778	5799.35
500.145	5875.43
500.511	5936.86
500.878	5980.89
501.244	6026.05
501.61	6033.27
501.976	6049.75
502.343	6087.2
502.709	6133.77
503.075	6160.64
503.441	6145.77
503.807	6153.63
504.173	6185.19
504.539	6243.5
504.905	6271.54
505.27	6336.96
505.636	6365.29
506.002	6420.4
506.367	6381.68
506.733	6400.79
507.099	6443.19
507.464	6503.8
507.829	6528.15
508.195	6544.07
508.56	6586.61
508.926	6605.11
509.291	6624.86
509.656	6632.62
510.021	6700.6
510.386	6752.3
510.751	6770.79
511.116	6814.21
511.481	6820.26
511.846	6875.29
512.211	6900.73
512.576	6914.87
512.941	6949.19
513.305	6990.83
513.67	7025.99
514.035	7042.37
514.399	7075.7
514.764	7072.47
515.128	7096.87
515.493	7138.87
515.857	7165.59
516.221	7177.48
516.585	7220.03
516.95	7259.33
517.314	7292.99
517.678	7310.68
518.042	7347.08
518.406	7450.58
518.77	7436.18
519.134	7437.16
519.498	7477.38
519.862	7497.79
520.225	7498.44
520.589	7597.64
520.953	7621.72
521.316	7629.23
521.68	7623.94
522.043	7682.69
522.407	7705.02
522.77	7735.27
523.134	7835.35
523.497	7861.21
523.86	7911.34
524.223	7948.88
524.587	7999.49
524.95	8012.24
525.313	8075.48
525.676	8118.34
526.039	8173.44
526.402	8168.18
526.765	8240.16
527.127	8271.33
527.49	8325.95
527.853	8387.18
528.215	8417.37
528.578	8482.42
528.941	8502.14
529.303	8544.81
529.666	8591.35
530.028	8634.06
530.39	8660.62
530.753	8698.9
531.115	8748.97
531.477	8819.24
531.839	8862.12
532.201	8947.12
532.564	9070.34
532.926	9137.61
533.287	9160.7
533.649	9144.15
534.011	9193.06
534.373	9260.14
534.735	9326.54
535.097	9351.44
535.458	9382.3
535.82	9441.19
536.181	9502.5
536.543	9540.71
536.904	9558.07
537.266	9681.33
537.627	9740.46
537.988	9805.25
538.35	9852.27
538.711	9901.85
539.072	9934.94
539.433	9946.57
539.794	10025.34
540.155	10060.9
540.516	10120.5
540.877	10169.88
541.238	10261.05
541.599	10373.06
541.959	10418.7
542.32	10465.91
542.681	10458.18
543.041	10502.49
543.402	10573.22
543.762	10590.4
544.123	10638.71
544.483	10657.79
544.844	10720.9
545.204	10741.15
545.564	10762.75
545.924	10839.37
546.284	10863.36
546.644	10921.13
547.004	11036.72
547.364	11069.65
547.724	11127.14
548.084	11150.03
548.444	11211.7
548.804	11206.82
549.164	11215.42
549.523	11281.52
549.883	11299.93
550.242	11324.16
550.602	11363.37
550.961	11463.01
551.321	11532.04
551.68	11622.7
552.04	11636.14
552.399	11668.74
552.758	11693.46
553.117	11710.1
553.476	11821.65
553.835	11826.99
554.194	11870.42
554.553	11878.52
554.912	11967.37
555.271	12062.78
555.63	12056.11
555.989	12117.73
556.347	12103.99
556.706	12167.61
557.065	12185.85
557.423	12173.37
557.782	12211.92
558.14	12270.99
558.499	12299.09
558.857	12419.75
559.215	12479.66
559.573	12534.68
559.932	12589.23
560.29	12637.96
560.648	12670.82
561.006	12751.54
561.364	12744.96
561.722	12781.61
562.08	12878.47
562.438	12848.97
562.795	12966.09
563.153	13013.91
563.511	13071.82
563.868	13106.91
564.226	13161.64
564.583	13225.64
564.941	13136.26
565.298	13265.1
565.656	13312.84
566.013	13387.28
566.37	13580.48
566.727	13722.67
567.085	13866.85
567.442	13892.33
567.799	14039.77
568.156	14166.85
568.513	14471.6
568.87	14647.83
569.226	14819.44
569.583	14927.27
569.94	14865.24
570.297	15059.08
570.653	15227.65
571.01	15368.28
571.366	15413.9
571.723	15355.55
572.079	15372.31
572.436	15581.5
572.792	15932.55
573.148	16271.14
573.505	16272.42
573.861	16325.62
574.217	16282.42
574.573	16313.15
574.929	16284.67
575.285	16396.07
575.641	16667.02
575.997	16793.74
576.352	16963.83
576.708	17244.63
577.064	17552.71
577.42	17662.18
577.775	17424.07
578.131	17222.19
578.486	17238.16
578.842	17339.81
579.197	17638.38
579.552	17792.65
579.908	17712.23
580.263	17993.38
580.618	18574.16
580.973	19418.8
581.328	19625.16
581.683	19047.96
582.038	18217.97
582.393	17562.23
582.748	17232.44
583.103	17325.24
583.458	17599.08
583.812	18024.04
584.167	18389.09
584.522	18430.31
584.876	18469.06
585.231	18231.81
585.585	17945.97
585.939	17786.17
586.294	17856.09
586.648	18171.79
587.002	18337.39
587.356	18487.62
587.711	18588.26
588.065	18436.3
588.419	18174.93
588.773	17910.97
589.127	17635.64
589.48	17750.03
589.834	17503.94
590.188	17465.41
590.542	17580.14
590.895	17539.76
591.249	17668.94
591.603	17842.9
591.956	18235.17
592.309	18640.4
592.663	18744.64
593.016	18692.74
593.369	18521.09
593.723	18499.5
594.076	18775.92
594.429	19032.59
594.782	19123.11
595.135	18827.09
595.488	18524.86
595.841	18407.14
596.194	18281.7
596.547	18325.13
596.899	18512.85
597.252	18597.87
597.605	18697.79
597.957	18706.95
598.31	18851.79
598.662	18984.98
599.015	18885.21
599.367	18893.7
599.719	18952.46
600.072	19138.65
600.424	19226.83
600.776	19410.98
601.128	19311.74
601.48	19261.86
601.832	19408.46
602.184	19725.33
602.536	19960.35
602.888	20132.14
603.24	19931.23
603.592	19691.14
603.943	19415.88
604.295	19508.54
604.646	19587.65
604.998	19707.95
605.349	19723.04
605.701	19611.12
606.052	19653.82
606.404	19704.46
606.755	19781.44
607.106	19699.32
607.457	19749.27
607.808	19784.52
608.159	19690.72
608.51	19691.54
608.861	19791.09
609.212	19818.36
609.563	20078.23
609.914	20146.63
610.265	20131.2
610.615	20219.66
610.966	20283.86
611.316	20201.46
611.667	20318.86
612.017	20288.42
612.368	20132.92
612.718	20464.62
613.068	20357.71
613.419	20414.66
613.769	20448.4
614.119	20285.15
614.469	20387.54
614.819	20290.18
615.169	20399.4
615.519	20303.57
615.869	20156.3
616.219	20242.68
616.568	20374.6
616.918	20332.53
617.268	20436.65
617.617	20390.87
617.967	20352.62
618.316	20257.7
618.666	20398.34
619.015	20633.71
619.364	20722.16
619.714	20872.19
620.063	20650.76
620.412	20450.97
620.761	20386.92
621.11	20584.23
621.459	20648.22
621.808	20868.75
622.157	21059.7
622.506	21125.57
622.855	21126.55
623.203	21150.06
623.552	21034.9
623.901	21080.26
624.249	21007.25
624.598	21003.13
624.946	20965.95
625.295	20988.54
625.643	21000.14
625.991	21033.82
626.34	21001.55
626.688	21064.23
627.036	21198.91
627.384	21144.6
627.732	21099.49
628.08	21203.52
628.428	21302.92
628.776	21384.69
629.124	21385.72
629.471	21325.02
629.819	21248.68
630.167	21218.93
630.514	21244.25
630.862	21281.1
631.209	21506.72
631.557	21373.6
631.904	21453.18
632.251	21537.77
632.599	21442.99
632.946	21496.64
633.293	21471.94
633.64	21464.91
633.987	21512.7
634.334	21455.13
634.681	21591.43
635.028	21789.79
635.375	21751.47
635.722	21857.15
636.068	21966.48
636.415	22011.11
636.762	21986.5
637.108	22152.77
637.455	22126.86
637.801	22186.01
638.147	22190.93
638.494	22059.61
638.84	22123.27
639.186	22185.07
639.532	22147.03
639.878	22247.31
640.225	22267.4
640.571	22284.83
640.916	22314.99
641.262	22295.24
641.608	22301.34
641.954	22394.77
642.3	22570.5
642.645	22541.55
642.991	22592.64
643.337	22667.53
643.682	22569.07
644.028	22763.94
644.373	22660.08
644.718	22667.46
645.064	22656.12
645.409	22663.95
645.754	22672.8
646.099	22837.44
646.444	22815.61
646.789	22912.59
647.134	22966.45
647.479	22822.6
647.824	22825.22
648.169	23037.4
648.513	23194.74
648.858	23151.81
649.203	23171.33
649.547	23228.11
649.892	23160.5
650.236	23256.22
650.581	23095.91
650.925	23290.95
651.269	23298.07
651.613	23256.84
651.958	23152.5
652.302	23230.73
652.646	23190.62
652.99	23127.17
653.334	23282.86
653.678	23290.65
654.022	23467.98
654.365	23487.54
654.709	25445.81
655.053	35969.59
655.396	47193.13
655.74	55437.68
656.083	53083.86
656.427	40714.69
656.77	30513.53
657.114	26011.67
657.457	24299.18
657.8	23830.64
658.143	23783.23
658.486	23698.75
658.83	23522
659.173	23351.88
659.516	23402.39
659.858	23490.63
660.201	23555.67
660.544	23476.1
660.887	23463.12
661.229	23604.9
661.572	23555.79
661.915	23624.11
662.257	23533.79
662.6	23580.22
662.942	23514.3
663.284	23577.1
663.627	23730.78
663.969	23669.13
664.311	23396.21
664.653	23419.53
664.995	23572.31
665.337	23660.56
665.679	23668.86
666.021	23675.72
666.363	23546.29
666.705	23751.86
667.046	23661.86
667.388	23473.28
667.73	23594.66
668.071	23616.58
668.413	23602.31
668.754	23676.03
669.096	23556.03
669.437	23741.29
669.778	23649.59
670.119	23753.89
670.461	23548.1
670.802	23682.94
671.143	23815.6
671.484	23884.02
671.825	23649.01
672.165	23826.96
672.506	23763.24
672.847	23758.05
673.188	23719.05
673.528	23737.64
673.869	23673.96
674.21	23707.75
674.55	23693.14
674.89	23745.22
675.231	23685.24
675.571	23707.37
675.911	23793.84
676.252	23749.23
676.592	23784.57
676.932	23798.36
677.272	23735.79
677.612	23718.59
677.952	23674.46
678.292	23744
678.631	23786.86
678.971	23794.83
679.311	24082.91
679.651	23935.27
679.99	23833.78
680.33	23829.43
680.669	23930.23
681.009	23745.83
681.348	23730.34
681.687	23806.96
682.026	23801.65
682.366	23829
682.705	23930.3
683.044	23890.99
683.383	23920.25
683.722	23961.42
684.061	24035.82
684.4	24137.59
684.738	24122.75
685.077	24240.92
685.416	24075.25
685.754	24083.12
686.093	24041.08
686.431	24029.41
686.77	23794.37
687.108	23864.37
687.447	23738.41
687.785	23834.34
688.123	23574.54
688.461	23655.47
688.799	23787.16
689.137	23795.84
689.475	23902.58
689.813	23898.88
690.151	23879.39
690.489	23909.36
690.827	23940.23
691.164	24025.21
691.502	23925.81
691.84	23827.85
692.177	23854.56
692.515	23877.76
692.852	23778.24
693.189	23948.24
693.527	23853
693.864	23658.98
694.201	23625.26
694.538	23776.48
694.875	23901.26
695.212	23661.25
695.549	23654.3
695.886	23760.05
696.223	23825.06
696.56	23866.42
696.897	23761.78
697.233	23754.6
697.57	23844.53
697.906	23764.17
698.243	23662.31
698.579	23609.7
698.916	23723.7
699.252	23631.46
699.588	23642.58
699.924	23775.92
700.261	23740.2
700.597	23741.9
700.933	23566.03
701.269	23529.29
701.605	23461.96
701.941	23466.83
702.276	23692.33
702.612	23635.65
702.948	23617.95
703.283	23702.01
703.619	23585.93
703.954	23697.95
704.29	23660.88
704.625	23641.3
704.961	23556.03
705.296	23594.4
705.631	23633.7
705.966	23607.95
706.301	23712.59
706.637	23822.21
706.972	23870.77
707.306	23727.84
707.641	23705.48
707.976	23678.48
708.311	23711.37
708.646	23769.8
708.98	23729.06
709.315	23447.89
709.649	23404.36
709.984	23510.92
710.318	23420.64
710.653	23492.16
710.987	23421.32
711.321	23365.45
711.655	23344.34
711.989	23423.98
712.324	23277.67
712.658	23199.14
712.992	23271.36
713.325	23336.58
713.659	23402.82
713.993	23354.51
714.327	23360.61
714.66	23324.66
714.994	23196.59
715.328	23134
715.661	23189.68
715.994	23256.73
716.328	23165.27
716.661	23020.39
716.994	23186.81
717.328	23188.21
717.661	23212.82
717.994	23203.67
718.327	23238.71
718.66	23135.17
718.993	23095.48
719.325	23055.43
719.658	23048.71
719.991	22801.87
720.324	22754.94
720.656	22645.74
720.989	22643.13
721.321	22621.22
721.654	22781.78
721.986	22712.03
722.318	22538.83
722.651	22495.72
722.983	22393.46
723.315	22507.07
723.647	22477.46
723.979	22536.82
724.311	22613.04
724.643	22615.63
724.975	22592.92
725.307	22547.32
725.638	22682.14
725.97	22592.94
726.302	22522.98
726.633	22332.6
726.965	22337.29
727.296	22184.58
727.628	22233.18
727.959	22223.59
728.29	22243.99
728.621	22280.07
728.952	22274.12
729.284	22140.49
729.615	22238.02
729.945	22186.55
730.276	22142.36
730.607	22099.22
730.938	22051.72
731.269	22012.72
731.599	21725.12
731.93	21642.71
732.261	21557.31
732.591	21630.58
732.922	21561.51
733.252	21443.54
733.582	21502.22
733.912	21698.23
734.243	21565.52
734.573	21505.38
734.903	21421.52
735.233	21370.37
735.563	21457.17
735.893	21342.69
736.223	21268.13
736.552	21203.18
736.882	21169.58
737.212	20964
737.541	21112.49
737.871	21029.62
738.2	20918.85
738.53	20841.58
738.859	20878.58
739.188	20915.83
739.518	20741.88
739.847	20555.67
740.176	20517.58
740.505	20609.44
740.834	20510.86
741.163	20358.21
741.492	20133.11
741.821	19982.44
742.15	19995.96
742.478	20064.47
742.807	20034.97
743.136	20059.96
743.464	20003.22
743.793	19871.7
744.121	19949.51
744.449	19850.44
744.778	19871.68
745.106	19934.62
745.434	19814.67
745.762	19742.16
746.09	19651.82
746.418	19605.11
746.746	19529.49
747.074	19551.43
747.402	19609.85
747.73	19516.86
748.057	19452.6
748.385	19318.72
748.712	19231.25
749.04	19184.39
749.367	19406.62
749.695	19345.01
750.022	19422.27
750.349	19253.83
750.677	19315.63
751.004	19132.54
751.331	18960.4
751.658	18784.03
751.985	18679.9
752.312	18700.03
752.639	18582.48
752.966	18693.33
753.292	18740.03
753.619	18782.65
753.946	18659.32
754.272	18543.62
754.599	18432.85
754.925	18450.83
755.251	18386.16
755.578	18319.49
755.904	18238.41
756.23	18313.41
756.556	18339.06
756.882	18301.98
757.208	18275.73
757.534	18344.2
757.86	18347.29
758.186	18229.9
758.512	18173.92
758.838	18187.41
759.163	17839.57
759.489	17877.28
759.814	17926.77
760.14	17982.75
760.465	17993.1
760.791	17731.51
761.116	17790.25
761.441	17507.53
761.766	17558.92
762.092	17490.69
762.417	17418.91
762.742	17467.79
763.066	17438.21
763.391	17469.76
763.716	17367.64
764.041	17197.27
764.366	17116.17
764.69	17139.24
765.015	17189.33
765.339	17134.55
765.664	17023.68
765.988	16915.73
766.312	16709.54
766.637	16504
766.961	16473.66
767.285	16570.02
767.609	16567.07
767.933	16381.85
768.257	16620.04
768.581	16690.74
768.905	16699.95
769.229	16627.96
769.552	16447.13
769.876	16340.8
770.2	16349.64
770.523	16306.23
770.847	16161.66
771.17	16035.49
771.493	16107.85
771.817	15995.3
772.14	15940.37
772.463	15913.8
772.786	15980.91
773.109	15709.7
773.432	15506.92
773.755	15455.58
774.078	15410.2
774.401	15495.33
774.724	15199.14
775.046	15308.08
775.369	15318.78
775.692	15284.66
776.014	15231.37
776.336	15157.26
776.659	15304.15
776.981	15144.71
777.303	14975.76
777.626	14809.51
777.948	14737.23
778.27	14892.25
778.592	14964.63
778.914	14801.98
779.236	14722.58
779.557	14790.31
779.879	14841.13
780.201	14847.41
780.523	14826.61
780.844	14716.21
781.166	14866.47
781.487	14945.94
781.809	14885.61
782.13	14866.81
782.451	14819.64
782.772	14890.47
783.094	14764.54
783.415	14889.02
783.736	14927.09
784.057	14922.2
784.378	14886.54
784.698	14838.27
785.019	14891.98
785.34	14814.42
785.661	14881.25
785.981	14886.27
786.302	14964.62
786.622	14971.73
786.943	14947.62
787.263	14874.58
787.583	14959.55
787.903	14979.71
788.224	14989.08
788.544	14885.07
788.864	14743.64
789.184	14847.24
789.504	14818.77
789.824	14802.41
790.143	14862.21
790.463	14941.25
790.783	14802.14
791.102	14890.4
791.422	14991.5
791.741	14862.26
792.061	14871.66
792.38	14785.36
792.699	14773.58
793.019	14846.01
793.338	14884.44
793.657	14934.06
793.976	15071.25
794.295	14971.08
794.614	14907.99
794.933	14670.31
795.252	14498.84
795.57	14426
795.889	14527.03
796.208	14619.76
796.526	14551.49
796.845	14534
797.163	14455.99
797.482	14430.92
797.8	14379.66
798.118	14312.67
798.436	14298.55
798.754	14243.6
799.073	14167.22
799.391	14226.11
799.708	14169.06
800.026	14214.93
800.344	14127.24
800.662	14084.86
800.98	13970.91
801.297	14010.81
801.615	13945
801.932	13956.85
802.25	13866.56
802.567	13894.92
802.884	13898.11
803.202	13924.65
803.519	13805.12
803.836	13610.36
804.153	13535.14
804.47	13638.92
804.787	13497.79
805.104	13506.45
805.421	13436.29
805.737	13465.57
806.054	13412.19
806.371	13420.26
806.687	13347.49
807.004	13203.27
807.32	13157.44
807.637	13133.44
807.953	13082.56
808.269	13030.71
808.585	13065.58
808.902	12953.97
809.218	12820.64
809.534	12696.2
809.85	12590.99
810.165	12633.77
810.481	12691.34
810.797	12662.34
811.113	12684.51
811.428	12653.87
811.744	12510.69
812.059	12427.21
812.375	12459.29
812.69	12400.13
813.006	12482.26
813.321	12403.45
813.636	12377.82
813.951	12332.58
814.266	12136.01
814.581	12029.35
814.896	12066.5
815.211	12068.78
815.526	12004.47
815.841	11857.29
816.155	11920.01
816.47	11863.45
816.784	11907.35
817.099	11883.52
817.413	11794.09
817.728	11809.88
818.042	11738.85
818.356	11756.29
818.67	11705.63
818.985	11654.02
819.299	11485.9
819.613	11486.9
819.926	11285.49
820.24	11268.5
820.554	11355.56
820.868	11364.41
821.182	11218.26
821.495	11255.04
821.809	11084.27
822.122	11096.93
822.436	11131.4
822.749	11123.58
823.062	11068.09
823.376	10966.13
823.689	10897.8
824.002	10865.13
824.315	10823.2
824.628	10821.92
824.941	10777.62
825.254	10884.31
825.566	10819.71
825.879	10712.79
826.192	10576.06
826.504	10590.12
826.817	10685.9
827.129	10882.85
827.442	10743.67
827.754	10639.96
828.066	10608.61
828.379	10388.71
828.691	10314.32
829.003	10269.56
829.315	10300.63
829.627	10152.25
829.939	10125.37
830.251	10126.48
830.562	10004.03
830.874	10023.93
831.186	9996.37
831.497	10116.34
831.809	10143.7
832.12	10090.54
832.432	9958.04
832.743	9891.21
833.054	9859.41
833.365	9788.5
833.676	9697.21
833.988	9698
834.299	9719.84
834.61	9682.61
834.92	9619.73
835.231	9555.8
835.542	9501.11
835.853	9445
836.163	9438.69
836.474	9499.2
836.784	9465.6
837.095	9418.58
837.405	9315.63
837.715	9259.33
838.026	9281.68
838.336	9300.12
838.646	9335.24
838.956	9272.48
839.266	9177.24
839.576	9116.2
839.886	9065.13
840.195	9008.72
840.505	8976.53
840.815	9030.48
841.124	8956.76
841.434	8871.34
841.743	8805.66
842.053	8702.69
842.362	8614.53
842.671	8589.5
842.981	8635.16
843.29	8582.61
843.599	8594.83
843.908	8500.94
844.217	8453.39
844.526	8518.78
844.835	8520.71
845.143	8431.25
845.452	8426.43
845.761	8484.51
846.069	8314.17
846.378	8229.52
846.686	8143.45
846.995	8115.44
847.303	8114.45
847.611	8113.85
847.919	8130.55
848.227	8072.02
848.535	7947.25
848.843	7933.9
849.151	7877.01
849.459	7924.19
849.767	7899.85
850.075	7883.3
850.382	7824.58
850.69	7753.19
850.998	7736.88
851.305	7725.87
851.612	7826.2
851.92	7815.55
852.227	7796.68
852.534	7744.79
852.841	7761.25
853.148	7708.95
853.455	7594.13
853.762	7489.23
854.069	7465.84
854.376	7464.34
854.683	7480.51
854.99	7472.48
855.296	7487.29
855.603	7342.07
855.909	7219.25
856.216	7140.74
856.522	7154.49
856.828	7166.64
857.135	7150.77
857.441	7108.89
857.747	7090.34
858.053	7021.75
858.359	6885.51
858.665	6898.44
858.971	6923.78
859.276	6905.57
859.582	6865.17
859.888	6851.56
860.193	6803.03
860.499	6745.96
860.804	6723.56
861.11	6682.97
861.415	6626.73
861.72	6636.48
862.026	6657.03
862.331	6664.49
862.636	6566.79
862.941	6489.15
863.246	6429.75
863.551	6448.04
863.855	6427.74
864.16	6397.79
864.465	6335.65
864.769	6307.86
865.074	6317.78
865.378	6275.91
865.683	6241.14
865.987	6218.02
866.291	6125.97
866.596	6130.91
866.9	6117.63
867.204	6125.18
867.508	6078.58
867.812	6018.46
868.116	5973.72
868.42	5918.45
868.723	5881.37
869.027	5956.62
869.331	5915.78
869.634	5821.31
869.938	5765.46
870.241	5790.72
870.544	5785.44
870.848	5724.37
871.151	5711.37
871.454	5709.13
871.757	5688.19
872.06	5643.31
872.363	5601.25
872.666	5597.46
872.969	5532.01
873.272	5497.5
873.574	5464.18
873.877	5425.72
874.18	5399.63
874.482	5405.99
874.785	5391.84
875.087	5307.39
875.389	5242.27
875.692	5251.25
875.994	5250.72
876.296	5307.14
876.598	5305.05
876.9	5255.75
877.202	5193.8
877.504	5174.79
877.805	5111.77
878.107	5060.56
878.409	4995.43
878.71	5006.44
879.012	4945.88
879.313	4953.79
879.615	4987.3
879.916	4921.48
880.217	4866.69
880.518	4822.13
880.82	4796.67
881.121	4780.7
881.422	4778.61
881.723	4773.67
882.023	4721.48
882.324	4672.09
882.625	4624.6
882.926	4604.71
883.226	4599.81
883.527	4551.36
883.827	4525.23
884.128	4523.82
884.428	4536.35
884.728	4458.96
885.028	4412.54
885.328	4391.41
885.629	4346.7
885.929	4347.45
886.228	4347.16
886.528	4347.44
886.828	4310.28
887.128	4242.86
887.427	4171.53
887.727	4166.96
888.027	4162.36
888.326	4187.76
888.625	4217.77
888.925	4199.46
889.224	4196.24
889.523	4164.11
889.822	4109.92
890.121	4081.19
890.42	4074.31
890.719	4077.03
891.018	4019.07
891.317	4020.1
891.616	4026.68
891.914	4003.23
892.213	3972.75
892.512	3958.94
892.81	3932.73
893.108	3902.71
893.407	3889.04
893.705	3872.77
894.003	3864.02
894.301	3865.22
894.599	3904.33
894.897	3934.8
895.195	3908.44
895.493	3872.69
895.791	3855.45
896.089	3834.65
896.386	3830.11
896.684	3840.47
896.981	3829.14
897.279	3839.98
897.576	3859.99
897.874	3836.6
898.171	3812.83
898.468	3789.01
898.765	3779.82
899.062	3823.59
899.359	3815.91
899.656	3830.29
899.953	3830.57
900.25	3812.93
900.547	3770.55
900.843	3744.2
901.14	3764.98
901.436	3776.86
901.733	3796.56
902.029	3791.01
902.325	3776
902.622	3738.98
902.918	3748.58
903.214	3747.88
903.51	3729.03
903.806	3749.82
904.102	3737.76
904.398	3738.44
904.694	3730.62
904.989	3770.24
905.285	3748.16
905.581	3722.95
905.876	3695.92
906.171	3644.44
906.467	3600.15
906.762	3581.15
907.057	3587.21
907.353	3598.85
907.648	3574.69
907.943	3567.77
908.238	3552.9
908.533	3543.1
908.827	3525.94
909.122	3484.13
909.417	3459.33
909.711	3471.75
910.006	3479.59
910.301	3476.96
910.595	3502.07
910.889	3504.04
911.184	3454.36
911.478	3442.48
911.772	3428.24
912.066	3398.94
912.36	3377.6
912.654	3346.77
912.948	3339.05
913.242	3356.89
913.536	3330.5
913.829	3308.24
914.123	3272.02
914.416	3226.31
914.71	3227.16
915.003	3241.13
915.297	3237.36
915.59	3245.85
915.883	3246.83
916.176	3235.1
916.469	3207.76
916.762	3175.23
917.055	3142.95
917.348	3114.94
917.641	3107.28
917.934	3088.02
918.226	3057.92
918.519	3022.56
918.811	3015.08
919.104	3018.97
919.396	2993.86
919.689	2975.06
919.981	2968.66
920.273	2950.47
920.565	2935.33
920.857	2911.87
921.149	2906.39
921.441	2891.82
921.733	2865.02
922.025	2856.05
922.316	2855.25
922.608	2850.19
922.9	2826.51
923.191	2796.62
923.483	2793.13
923.774	2766.66
924.065	2759.61
924.357	2731.06
924.648	2709.88
924.939	2687.49
925.23	2657.39
925.521	2618.37
925.812	2601.87
926.102	2573.45
926.393	2572.26
926.684	2569.49
926.975	2572.1
927.265	2588.59
927.556	2588.51
927.846	2558.01
928.136	2525.84
928.427	2486
928.717	2460.82
929.007	2447.95
929.297	2432.55
929.587	2416.99
929.877	2402.1
930.167	2389.1
930.457	2367.64
930.746	2343.65
931.036	2333.58
931.325	2311.07
931.615	2285.85
931.904	2276.42
932.194	2259.23
932.483	2255.38
932.772	2269.29
933.062	2272
933.351	2257.76
933.64	2235.04
933.929	2211.36
934.218	2178.74
934.506	2141.07
934.795	2126.74
935.084	2117.94
935.372	2113.79
935.661	2111.61
935.949	2106.13
936.238	2102.53
936.526	2075.78
936.815	2052.41
937.103	2024.53
937.391	2004.85
937.679	1994.41
937.967	1979.65
938.255	1966.53
938.543	1969.96
938.831	1953.03
939.118	1942.72
939.406	1927.96
939.693	1896.29
939.981	1870.53
940.268	1858.76
940.556	1844.98
940.843	1848.55
941.13	1841.21
941.418	1837.91
941.705	1825.93
941.992	1810.74
942.279	1788.23
942.566	1764.2
942.852	1748.71
943.139	1740.1
943.426	1728.87
943.712	1724.74
943.999	1715.55
944.285	1719.02
944.572	1707.36
944.858	1696.92
945.144	1685.32
945.431	1664.95
945.717	1650.13
946.003	1636.43
946.289	1615.36
946.575	1596.72
946.861	1586.17
947.146	1572.69
947.432	1576.94
947.718	1574.2
948.003	1571.09
948.289	1560.36
948.574	1541
948.86	1516.03
949.145	1493.68
949.43	1473.79
949.715	1470.56
950	1464.88
950.285	1451.01
950.57	1444
950.855	1434.18
951.14	1430.42
951.425	1417.73
951.709	1411.33
951.994	1402.72
952.278	1397.7
952.563	1388.78
952.847	1380.37
953.132	1376.55
953.416	1375.58
953.7	1360.61
953.984	1350.13
954.268	1336.68
954.552	1329.56
954.836	1312.33
955.12	1297.04
955.404	1278.47
955.687	1260.5
955.971	1256.3
956.254	1252.46
956.538	1246.25
956.821	1245.21
957.105	1236.5
957.388	1229.45
957.671	1214.52
957.954	1202.1
958.237	1187.48
958.52	1175.25
958.803	1165.94
959.086	1152.82
959.369	1146.23
959.652	1145.44
959.934	1142.38
960.217	1140.32
960.499	1136.88
960.782	1130.85
961.064	1118.19
961.346	1102.23
961.629	1089.48
961.911	1081.14
962.193	1078.65
962.475	1079.54
962.757	1080.17
963.039	1077.83
963.32	1075.54
963.602	1067.6
963.884	1056.87
964.165	1047.14
964.447	1039.53
964.728	1024.03
965.01	1010.01
965.291	1000.26
965.572	999.17
965.853	996.8
966.134	992.82
966.415	985.83
966.696	981.52
966.977	970.49
967.258	966.18
967.539	954.46
967.819	942.52
968.1	932.22
968.38	921.05
968.661	919.92
968.941	914.06
969.222	918.12
969.502	914.9
969.782	913.4
970.062	906.22
970.342	902.3
970.622	887.45
970.902	879.73
971.182	866.7
971.462	854.79
971.741	848.32
972.021	846.82
972.3	844.5
972.58	844.15
972.859	840.76
973.138	834.94
973.418	831.39
973.697	820.96
973.976	816.68
974.255	810.54
974.534	801.93
974.813	797.82
975.092	787.44
975.37	788.57
975.649	785.92
975.928	780.39
976.206	779.66
976.485	772.75
976.763	769.35
977.041	759.77
977.32	757.04
977.598	744.9
977.876	745.61
978.154	742.39
978.432	732.57
978.71	728.9
978.988	722.68
979.265	717.61
979.543	717.45
979.821	708.19
980.098	705.57
980.376	695.93
980.653	687.68
980.93	682.74
981.208	675.34
981.485	670.95
981.762	666.88
982.039	666.8
982.316	664.54
982.593	664
982.87	666.51
983.146	662.67
983.423	657.7
983.7	652.74
983.976	646.18
984.253	639.11
984.529	636.1
984.805	629.77
985.082	628.25
985.358	624.35
985.634	621.4
985.91	617.72
986.186	616.43
986.462	614.42
986.738	608.5
987.013	605.41
987.289	596.49
987.565	591.15
987.84	583.1
988.116	581.05
988.391	580.46
988.666	577.42
988.942	573.54
989.217	573.87
989.492	574.78
989.767	569.95
990.042	566.39
990.317	561.29
990.592	558.11
990.866	557.15
991.141	551.95
991.416	546.79
991.69	545.98
991.964	540.86
992.239	540.08
992.513	538.14
992.787	536.93
993.062	533.11
993.336	532.06
993.61	530.63
993.884	525.98
994.158	522.86
994.431	516.94
994.705	512.11
994.979	509.38
995.252	506.97
995.526	503.33
995.799	501.86
996.073	499.36
996.346	496.43
996.619	493.93
996.892	493.75
997.165	492.6
997.438	492.08
997.711	488.01
997.984	482.28
998.257	480.41
998.53	477.79
998.802	475.39
999.075	474.67
999.347	471.29
999.62	469.52
999.892	464.65
1000.165	463.39
1000.437	461.33
1000.709	462.32
1000.981	459.03
1001.253	456.56
1001.525	454.12
1001.797	452.77
1002.068	447.29
1002.34	448.01
1002.612	444.74
1002.883	445.56
1003.155	444.01
1003.426	439.43
1003.698	440.81
1003.969	437.57
1004.24	437.32
1004.511	435.72
1004.782	432.7
1005.053	431.56
1005.324	431.65
1005.595	426.38
1005.866	425.64
1006.136	421.5
1006.407	424.63
1006.678	422.62
1006.948	420.03
1007.218	420.11
1007.489	417.98
1007.759	415.55
1008.029	413.71
1008.299	413.66
1008.569	413.32
1008.839	409.66
1009.109	410.94
1009.379	407.37
1009.649	408.81
1009.918	406.63
1010.188	405.67
1010.458	403.9
1010.727	403.83
1010.996	403.73
1011.266	403.15
1011.535	400.22
1011.804	400.53
1012.073	399.17
1012.342	396.69
1012.611	395.59
1012.88	393.8
1013.149	394.87
1013.417	392.67
1013.686	391.24
1013.955	390.93
1014.223	392.18
1014.492	388.38
1014.76	387.32
1015.028	386.25
1015.296	386.6
1015.565	384.38
1015.833	385.65
1016.101	383.09
1016.368	383.71
1016.636	382.21
1016.904	380.21
1017.172	382.52
1017.439	379.42
1017.707	381.15
1017.974	379.62
1018.242	378.91
1018.509	379.54
1018.776	376.8
1019.044	377.57
1019.311	376.13
1019.578	375.12
1019.845	375.75
1020.112	374.41
1020.378	374.41
1020.645	374.41
