Data from 190702_Kr_34K_dark_FLMS138901_16-14-56-733.txt Node
Date: Tue Jul 02 16:14:56 EDT 2019
User: pSAM
Spectrometer: FLMS13890
Trigger mode: 0
Integration Time (sec): 5.000000E-3
Scans to average: 1000
Electric dark correction enabled: true
Nonlinearity correction enabled: false
Boxcar width: 0
XAxis mode: Wavelengths
Number of Pixels in Spectrum: 2048
>>>>>Begin Spectral Data<<<<<
342.097	-59.79
342.483	-59.79
342.868	-59.79
343.254	-100.57
343.639	-104.94
344.025	-104.24
344.41	-98.17
344.796	-90.22
345.181	-80.3
345.567	-65.78
345.952	-53.23
346.337	-34.88
346.722	-18.09
347.107	0.5
347.493	19.64
347.878	41.88
348.263	57.84
348.648	76.74
349.033	97.1
349.418	116.11
349.802	135.1
350.187	152.61
350.572	171.44
350.957	189.61
351.342	203.82
351.726	220.04
352.111	235
352.495	247.21
352.88	258.78
353.264	270.14
353.649	283.09
354.033	292.05
354.418	300.14
354.802	309.17
355.186	314.19
355.57	318.37
355.955	325.8
356.339	328.53
356.723	332.87
357.107	336.1
357.491	351.23
357.875	342.22
358.259	340.75
358.643	340.97
359.026	342.05
359.41	339.79
359.794	340.74
360.178	340.46
360.561	339.3
360.945	335.88
361.329	336.18
361.712	336.12
362.096	334.25
362.479	331.64
362.862	328.54
363.246	329.93
363.629	327.18
364.012	325.46
364.396	322.77
364.779	322.57
365.162	319.98
365.545	319.4
365.928	315.49
366.311	317.17
366.694	316.88
367.077	314.03
367.46	313.91
367.843	312.9
368.226	311.94
368.608	313.35
368.991	310.87
369.374	311.12
369.756	313.82
370.139	311.1
370.521	311.22
370.904	311.52
371.286	308.8
371.669	312.27
372.051	310.16
372.433	312.08
372.816	311.55
373.198	311.58
373.58	313.01
373.962	311.47
374.344	312.05
374.726	313.53
375.108	314.92
375.49	315.39
375.872	316.5
376.254	315.79
376.636	317.41
377.018	316.12
377.399	316.95
377.781	316.63
378.163	319.7
378.544	319.43
378.926	318.14
379.307	320.38
379.689	319.95
380.07	320.59
380.452	322.51
380.833	321.49
381.214	321.15
381.596	322.13
381.977	322.4
382.358	322.63
382.739	323.53
383.12	323.04
383.501	326.5
383.882	324.26
384.263	325.23
384.644	325.27
385.025	327.43
385.406	327.33
385.787	327
386.167	327.2
386.548	328.16
386.929	328.96
387.309	328
387.69	328.69
388.07	330.3
388.451	329.34
388.831	328.54
389.211	330.41
389.592	330.6
389.972	329.89
390.352	331.66
390.733	331.83
391.113	331.96
391.493	332.39
391.873	331.62
392.253	331.56
392.633	332.97
393.013	333.23
393.393	331.93
393.772	332.64
394.152	332.25
394.532	333.14
394.912	335.16
395.291	334
395.671	336.03
396.05	335.61
396.43	335.87
396.809	336.09
397.189	333.81
397.568	336.16
397.948	338.45
398.327	335.96
398.706	336.43
399.085	334.49
399.465	338.84
399.844	336.83
400.223	340.13
400.602	338.98
400.981	338.94
401.36	339.54
401.739	340.36
402.117	339.77
402.496	340.76
402.875	340.61
403.254	338.46
403.632	340.89
404.011	341.35
404.39	340.83
404.768	342.77
405.147	342.26
405.525	341.11
405.903	342.8
406.282	343.35
406.66	343.2
407.038	344.21
407.417	344.58
407.795	343.05
408.173	341.23
408.551	342.63
408.929	343.14
409.307	343.41
409.685	343.22
410.063	343.66
410.441	344.23
410.818	346.31
411.196	346.25
411.574	343.16
411.952	345.19
412.329	345.46
412.707	345.91
413.084	348.36
413.462	346.63
413.839	347.13
414.217	346.47
414.594	349.45
414.971	349.04
415.349	347.8
415.726	350.02
416.103	347.28
416.48	349.42
416.857	348.44
417.234	351.08
417.611	349.63
417.988	350.06
418.365	349.28
418.742	351.11
419.119	351.96
419.495	351.88
419.872	349.89
420.249	356.85
420.625	353.07
421.002	351.28
421.379	350.49
421.755	352.31
422.131	351.87
422.508	351.44
422.884	353.73
423.26	354.6
423.637	353.83
424.013	353.76
424.389	354.83
424.765	354.36
425.141	352.64
425.517	352.07
425.893	353.94
426.269	354.14
426.645	353.11
427.021	354.54
427.397	353.3
427.772	356.26
428.148	354.96
428.524	356.35
428.899	354.66
429.275	355.42
429.651	355.67
430.026	356.86
430.401	357.67
430.777	357.42
431.152	357.22
431.527	356.2
431.903	358.45
432.278	356.78
432.653	357.3
433.028	360.47
433.403	358.99
433.778	356.01
434.153	360.86
434.528	358.15
434.903	361
435.278	362.4
435.653	365.91
436.027	367.72
436.402	368.17
436.777	364.31
437.151	361.59
437.526	360.87
437.9	359.94
438.275	360.12
438.649	359.24
439.023	360.04
439.398	360.77
439.772	361.57
440.146	360
440.52	361.96
440.895	359.55
441.269	362.39
441.643	360.2
442.017	362.17
442.391	362.83
442.765	361.86
443.138	361.02
443.512	362.24
443.886	362.98
444.26	362.34
444.633	362.74
445.007	362.31
445.38	362.7
445.754	363.22
446.127	364.42
446.501	363.99
446.874	363.4
447.248	364.88
447.621	364.88
447.994	365
448.367	362.25
448.741	363.45
449.114	363.72
449.487	364.81
449.86	362.88
450.233	362.92
450.606	365.17
450.978	364.68
451.351	366.75
451.724	363.2
452.097	365.82
452.469	363.17
452.842	364.64
453.215	365.94
453.587	366.32
453.96	364.34
454.332	364.89
454.704	367.33
455.077	366
455.449	366.09
455.821	364.86
456.194	364.41
456.566	366.27
456.938	367.26
457.31	367.36
457.682	364.72
458.054	363.9
458.426	365.95
458.798	365.84
459.17	368.25
459.541	365.51
459.913	367.08
460.285	366.83
460.656	366.32
461.028	365.39
461.399	364.09
461.771	366.5
462.142	367.41
462.514	366.74
462.885	365.86
463.256	366.03
463.628	368.18
463.999	368.93
464.37	366.58
464.741	367.6
465.112	367.7
465.483	364.83
465.854	368.41
466.225	367.62
466.596	368.46
466.967	366.87
467.338	367.37
467.708	367.98
468.079	367.07
468.45	366.24
468.82	368.82
469.191	366.01
469.561	366.16
469.932	367.9
470.302	370.36
470.673	368.39
471.043	367.39
471.413	367.37
471.783	367.84
472.154	368.4
472.524	367.86
472.894	368.43
473.264	367.36
473.634	365.38
474.004	368.82
474.374	367.55
474.743	368.95
475.113	370.9
475.483	369.49
475.853	368.28
476.222	366.13
476.592	370.24
476.961	369.12
477.331	367.47
477.7	367.65
478.07	368.8
478.439	369.12
478.808	368.45
479.178	368.4
479.547	369.22
479.916	366.36
480.285	369.13
480.654	369.54
481.023	367.17
481.392	368.82
481.761	367.35
482.13	369.09
482.499	369.68
482.867	370.24
483.236	370.61
483.605	371.84
483.973	370.48
484.342	370.76
484.71	371.02
485.079	369.98
485.447	371.84
485.816	372.84
486.184	373.93
486.552	371.34
486.921	373.47
487.289	372.88
487.657	374.18
488.025	376.12
488.393	374.54
488.761	375.56
489.129	375.05
489.497	375.95
489.865	373.72
490.233	373.16
490.6	372.62
490.968	373.46
491.336	373.05
491.703	373.43
492.071	371.49
492.438	372.08
492.806	372.54
493.173	372.85
493.541	372.22
493.908	374.25
494.275	373.21
494.642	370.85
495.01	372.11
495.377	371.08
495.744	372.47
496.111	373.54
496.478	373.94
496.845	370.56
497.211	370.12
497.578	372.27
497.945	372.69
498.312	372.35
498.678	372.93
499.045	370.46
499.412	372.65
499.778	369.92
500.145	370.3
500.511	369.64
500.878	370.04
501.244	369.46
501.61	369.36
501.976	370.14
502.343	367.77
502.709	370.44
503.075	371.12
503.441	368.83
503.807	367.82
504.173	367.31
504.539	368.45
504.905	368.86
505.27	368.73
505.636	369.54
506.002	369.19
506.367	370.57
506.733	369.55
507.099	367.98
507.464	368.81
507.829	368.85
508.195	369.9
508.56	368.65
508.926	368.09
509.291	367.21
509.656	369.22
510.021	367.18
510.386	368.17
510.751	367.53
511.116	367.86
511.481	369.19
511.846	371.85
512.211	368.6
512.576	368.27
512.941	370.29
513.305	368.46
513.67	367.42
514.035	369.14
514.399	370.31
514.764	369.26
515.128	370.48
515.493	370.31
515.857	368.94
516.221	366.95
516.585	368.78
516.95	368.27
517.314	369.2
517.678	369.56
518.042	369.69
518.406	370.83
518.77	369.63
519.134	370.12
519.498	367.56
519.862	367.91
520.225	367.95
520.589	371.61
520.953	367.78
521.316	367.92
521.68	368.15
522.043	368.68
522.407	367.26
522.77	368.78
523.134	368.18
523.497	367.05
523.86	366.28
524.223	367.6
524.587	368.09
524.95	366.98
525.313	368.03
525.676	367.37
526.039	368.1
526.402	367.97
526.765	368.7
527.127	369.28
527.49	367.34
527.853	366.89
528.215	366.74
528.578	367.15
528.941	366.8
529.303	368.49
529.666	367.87
530.028	366.38
530.39	367.02
530.753	365.65
531.115	368.73
531.477	367.86
531.839	367.22
532.201	367.92
532.564	366.4
532.926	367.63
533.287	369.01
533.649	368.46
534.011	367.09
534.373	369.78
534.735	367.95
535.097	368.4
535.458	367.16
535.82	367.91
536.181	366.64
536.543	365.92
536.904	369.78
537.266	368.13
537.627	368.98
537.988	371.07
538.35	371.71
538.711	370.86
539.072	371.29
539.433	372.83
539.794	373.73
540.155	376.88
540.516	376.57
540.877	378.93
541.238	382.24
541.599	388.38
541.959	392.3
542.32	400.31
542.681	405.82
543.041	407.88
543.402	411.19
543.762	411.59
544.123	409.24
544.483	408.35
544.844	406.42
545.204	405.22
545.564	409.49
545.924	414.54
546.284	415.22
546.644	408.15
547.004	395.67
547.364	387.24
547.724	384.03
548.084	379.45
548.444	377.92
548.804	378.13
549.164	378.1
549.523	377.96
549.883	378.56
550.242	377.19
550.602	376.95
550.961	375.46
551.321	374.63
551.68	374.82
552.04	374.53
552.399	375.41
552.758	375.47
553.117	372.99
553.476	371.83
553.835	372.73
554.194	370.92
554.553	370.16
554.912	367.63
555.271	368.94
555.63	367.66
555.989	367.9
556.347	366.83
556.706	369.42
557.065	365.72
557.423	365.98
557.782	365.83
558.14	367.06
558.499	364.87
558.857	365.86
559.215	366.87
559.573	364.99
559.932	367.88
560.29	366.18
560.648	366.42
561.006	363.5
561.364	365.21
561.722	365.54
562.08	365.49
562.438	365.65
562.795	365.81
563.153	364.55
563.511	365.57
563.868	366.23
564.226	364.31
564.583	366.96
564.941	364.92
565.298	366.4
565.656	365.43
566.013	365.53
566.37	364.07
566.727	364.49
567.085	363.63
567.442	366.4
567.799	364.39
568.156	365.88
568.513	366.54
568.87	366.08
569.226	365.02
569.583	364.29
569.94	366.22
570.297	364.06
570.653	362.98
571.01	364.87
571.366	364.56
571.723	364.42
572.079	366.9
572.436	363.61
572.792	365.54
573.148	363.84
573.505	364.35
573.861	363.49
574.217	365.02
574.573	363.55
574.929	365.4
575.285	364.76
575.641	366.28
575.997	366.27
576.352	365.02
576.708	365.52
577.064	367.75
577.42	370.5
577.775	367.97
578.131	367.05
578.486	366.57
578.842	368.36
579.197	370.12
579.552	369.45
579.908	369.88
580.263	370.38
580.618	370.4
580.973	370.51
581.328	369.94
581.683	370.03
582.038	370.64
582.393	370.94
582.748	371.17
583.103	371.18
583.458	372.22
583.812	373.57
584.167	372.52
584.522	372.45
584.876	373.36
585.231	369.35
585.585	371.51
585.939	371.87
586.294	369.48
586.648	369.9
587.002	374.06
587.356	375.61
587.711	376.66
588.065	376.18
588.419	373.53
588.773	370.53
589.127	370.35
589.48	370.73
589.834	369.2
590.188	368.97
590.542	369.72
590.895	367.89
591.249	367.59
591.603	367.81
591.956	369.36
592.309	369.01
592.663	369.22
593.016	368.35
593.369	368.69
593.723	369.94
594.076	371.01
594.429	368.36
594.782	366.82
595.135	366.25
595.488	366.29
595.841	366.65
596.194	365.84
596.547	364.31
596.899	364.57
597.252	365.65
597.605	365.82
597.957	363.83
598.31	363.77
598.662	366.81
599.015	364.41
599.367	365.58
599.719	365.76
600.072	367.95
600.424	367.27
600.776	365.56
601.128	365.06
601.48	366.24
601.832	364.07
602.184	364.7
602.536	364.69
602.888	364.5
603.24	363.87
603.592	362.6
603.943	363.73
604.295	364.29
604.646	364.99
604.998	364.76
605.349	364.3
605.701	363.61
606.052	362.03
606.404	365.36
606.755	363.53
607.106	363.31
607.457	365.22
607.808	365.48
608.159	363.39
608.51	367.16
608.861	366.4
609.212	365.9
609.563	369.49
609.914	371.49
610.265	375.52
610.615	382.28
610.966	396.75
611.316	408.92
611.667	419.57
612.017	418.29
612.368	408.14
612.718	399.74
613.068	392.97
613.419	386.16
613.769	382.08
614.119	378.99
614.469	378.16
614.819	379.65
615.169	377.63
615.519	374.64
615.869	373.18
616.219	370.26
616.568	370.23
616.918	368.91
617.268	367.15
617.617	368.54
617.967	367.5
618.316	366.95
618.666	367.24
619.015	367.17
619.364	368.29
619.714	367.14
620.063	367.92
620.412	367.28
620.761	369.11
621.11	367.72
621.459	370.76
621.808	366.9
622.157	368.29
622.506	366.04
622.855	367.13
623.203	366.05
623.552	364.67
623.901	365.76
624.249	365.92
624.598	364.78
624.946	366.07
625.295	364
625.643	364.43
625.991	366.5
626.34	362.67
626.688	364.59
627.036	361.66
627.384	365.09
627.732	363.71
628.08	363.29
628.428	363.61
628.776	362.3
629.124	362.99
629.471	362.85
629.819	361.83
630.167	364.39
630.514	365.23
630.862	364.16
631.209	366.33
631.557	368.49
631.904	366.84
632.251	364.76
632.599	364.52
632.946	361.2
633.293	364.19
633.64	361.93
633.987	361.97
634.334	359.59
634.681	360.6
635.028	360.25
635.375	360.84
635.722	361.16
636.068	360.84
636.415	359.38
636.762	359.31
637.108	358.65
637.455	360.32
637.801	359.46
638.147	360.22
638.494	359.31
638.84	360.34
639.186	360.41
639.532	359.62
639.878	360.56
640.225	360.98
640.571	360.36
640.916	361.05
641.262	358.36
641.608	361.61
641.954	359.81
642.3	360.8
642.645	358.91
642.991	357.73
643.337	360.88
643.682	360.56
644.028	359.21
644.373	361.32
644.718	360.64
645.064	359.42
645.409	359.37
645.754	361.54
646.099	363.05
646.444	361.07
646.789	359.68
647.134	359.73
647.479	357.98
647.824	361.42
648.169	361.2
648.513	359.27
648.858	359.54
649.203	359.95
649.547	360.01
649.892	360.1
650.236	361.53
650.581	360.86
650.925	360.9
651.269	361.6
651.613	359.9
651.958	361.2
652.302	359.89
652.646	358.48
652.99	359.22
653.334	359.52
653.678	358.63
654.022	359.09
654.365	359.44
654.709	360.64
655.053	361.47
655.396	359.25
655.74	358.16
656.083	359.99
656.427	359.08
656.77	359.55
657.114	360.75
657.457	358.52
657.8	359.95
658.143	359.42
658.486	360.03
658.83	358.61
659.173	359.17
659.516	358.81
659.858	360.39
660.201	359.22
660.544	359.89
660.887	358.38
661.229	358.75
661.572	356.41
661.915	358.14
662.257	358.71
662.6	358.56
662.942	357.34
663.284	358.98
663.627	360.86
663.969	360.08
664.311	360.28
664.653	359.9
664.995	358.81
665.337	359.88
665.679	358.14
666.021	358.87
666.363	361.11
666.705	359.86
667.046	360.23
667.388	360.76
667.73	358.6
668.071	358.31
668.413	359.31
668.754	358.4
669.096	360.45
669.437	356.22
669.778	359.46
670.119	358.9
670.461	359.57
670.802	359.01
671.143	359.46
671.484	358.71
671.825	359.3
672.165	358.34
672.506	358.62
672.847	357.38
673.188	359.31
673.528	359.39
673.869	360.47
674.21	357.49
674.55	358.95
674.89	359.74
675.231	358
675.571	358.67
675.911	358.87
676.252	360.14
676.592	358.96
676.932	357.51
677.272	357.75
677.612	357.69
677.952	357.74
678.292	357.86
678.631	357.05
678.971	357.3
679.311	357.76
679.651	355.48
679.99	357.32
680.33	357.78
680.669	358.23
681.009	358.94
681.348	357.07
681.687	359.67
682.026	359.67
682.366	357.41
682.705	356.2
683.044	359.19
683.383	357.95
683.722	358.8
684.061	358.95
684.4	359.5
684.738	359.08
685.077	357.19
685.416	356.13
685.754	358.69
686.093	356.65
686.431	357.43
686.77	357.99
687.108	357.7
687.447	358.63
687.785	358.53
688.123	358.81
688.461	361.02
688.799	359.25
689.137	358.06
689.475	359.01
689.813	357.75
690.151	358.86
690.489	356.84
690.827	358.21
691.164	356.21
691.502	355.86
691.84	358.4
692.177	358.08
692.515	356.79
692.852	358.66
693.189	356.67
693.527	358.86
693.864	359.65
694.201	359.88
694.538	359.33
694.875	357.87
695.212	359.16
695.549	358.17
695.886	356.49
696.223	357.16
696.56	357.12
696.897	356.03
697.233	355.63
697.57	357.47
697.906	356.89
698.243	358.35
698.579	355.57
698.916	355.89
699.252	356.64
699.588	357.1
699.924	357.33
700.261	356.31
700.597	354.98
700.933	357.4
701.269	358.03
701.605	355.3
701.941	356.84
702.276	357.95
702.612	356.4
702.948	358.64
703.283	358.29
703.619	355.45
703.954	357
704.29	356.52
704.625	358.69
704.961	358.81
705.296	356.29
705.631	357.56
705.966	357.33
706.301	356.77
706.637	359.35
706.972	357.17
707.306	357.44
707.641	359.85
707.976	357.77
708.311	358.12
708.646	357.81
708.98	358.76
709.315	356.68
709.649	358.82
709.984	360.63
710.318	357.76
710.653	358.97
710.987	356.51
711.321	356.4
711.655	359.63
711.989	357.83
712.324	357.37
712.658	358.51
712.992	359.12
713.325	358.65
713.659	358.92
713.993	356.34
714.327	357.68
714.66	355.84
714.994	356.46
715.328	356.33
715.661	355.79
715.994	357.38
716.328	355.3
716.661	358.22
716.994	356.63
717.328	357.45
717.661	356.1
717.994	355.18
718.327	355.15
718.66	358.1
718.993	357.12
719.325	355.76
719.658	354.95
719.991	356.28
720.324	355.89
720.656	356.69
720.989	357.85
721.321	354.16
721.654	357.28
721.986	357.01
722.318	356.56
722.651	355.8
722.983	356.68
723.315	354.96
723.647	355.73
723.979	355.21
724.311	357.82
724.643	354.4
724.975	357.59
725.307	355.6
725.638	356.75
725.97	357.68
726.302	355.82
726.633	356.96
726.965	355.76
727.296	355.94
727.628	355.85
727.959	354.27
728.29	357.79
728.621	355.42
728.952	354.08
729.284	355.35
729.615	354.33
729.945	355.85
730.276	354.21
730.607	353.93
730.938	355.84
731.269	354.23
731.599	355.93
731.93	356.06
732.261	354.83
732.591	355.17
732.922	358.44
733.252	357.39
733.582	355.34
733.912	355.11
734.243	354.68
734.573	354.61
734.903	354.22
735.233	354.14
735.563	356.22
735.893	357.11
736.223	357.21
736.552	355.14
736.882	356.21
737.212	356.31
737.541	353.65
737.871	353.08
738.2	356.31
738.53	354.26
738.859	355.12
739.188	355.92
739.518	354.97
739.847	355.85
740.176	355.91
740.505	354.13
740.834	355.28
741.163	354.43
741.492	353.95
741.821	356.2
742.15	355.86
742.478	354.75
742.807	354.67
743.136	353.11
743.464	354.64
743.793	355.63
744.121	355.14
744.449	355.01
744.778	355.21
745.106	355.22
745.434	354.33
745.762	356.42
746.09	355.76
746.418	353.92
746.746	354.73
747.074	354.76
747.402	354.18
747.73	356.54
748.057	352.77
748.385	353.95
748.712	353.46
749.04	354.24
749.367	353.66
749.695	353.88
750.022	354.64
750.349	354.18
750.677	355.32
751.004	359.51
751.331	354.87
751.658	355.91
751.985	355.27
752.312	353.55
752.639	357.19
752.966	354.55
753.292	353.66
753.619	354.44
753.946	355.58
754.272	353.01
754.599	355.23
754.925	355.06
755.251	356.45
755.578	354.23
755.904	355.22
756.23	355.63
756.556	354.12
756.882	353.41
757.208	355.36
757.534	353.28
757.86	353.38
758.186	355.06
758.512	354.66
758.838	354.3
759.163	355.11
759.489	354.34
759.814	354.42
760.14	353.04
760.465	357.32
760.791	353.41
761.116	353.77
761.441	353.02
761.766	355.35
762.092	356.02
762.417	353.25
762.742	355.52
763.066	353.6
763.391	353.28
763.716	352.65
764.041	353.78
764.366	354.78
764.69	353.02
765.015	354.55
765.339	353.81
765.664	355.6
765.988	354.24
766.312	353.8
766.637	352.41
766.961	354.55
767.285	354.14
767.609	353.58
767.933	354.17
768.257	355.29
768.581	355.44
768.905	353.6
769.229	353.69
769.552	354.85
769.876	353.74
770.2	354.09
770.523	354.83
770.847	354.25
771.17	353.87
771.493	354.08
771.817	354.3
772.14	353.4
772.463	352.76
772.786	354.17
773.109	352.88
773.432	353.83
773.755	354.36
774.078	352.86
774.401	352.7
774.724	353.53
775.046	354.32
775.369	354.98
775.692	353.74
776.014	352.54
776.336	355.38
776.659	354.86
776.981	354.12
777.303	353.05
777.626	352.74
777.948	354.19
778.27	353.72
778.592	354.26
778.914	352.39
779.236	353.09
779.557	353.94
779.879	352.97
780.201	353.24
780.523	356.23
780.844	353.26
781.166	351.4
781.487	351.56
781.809	353.32
782.13	352.33
782.451	352.2
782.772	353.82
783.094	352.56
783.415	354.66
783.736	352.6
784.057	353.1
784.378	352.36
784.698	354.09
785.019	354.4
785.34	352.6
785.661	352.7
785.981	355.91
786.302	355.01
786.622	354.24
786.943	353.91
787.263	354.73
787.583	352.91
787.903	353.12
788.224	350.96
788.544	354.23
788.864	351.74
789.184	354.06
789.504	353.12
789.824	352.59
790.143	354.53
790.463	354.37
790.783	352.64
791.102	352.79
791.422	352.93
791.741	354.57
792.061	350.86
792.38	352.45
792.699	351.77
793.019	355.63
793.338	352.5
793.657	352.63
793.976	352.44
794.295	351.21
794.614	353.3
794.933	354.27
795.252	352.09
795.57	353.66
795.889	353.63
796.208	353.07
796.526	352.76
796.845	353.89
797.163	353.85
797.482	355.27
797.8	353.09
798.118	353.11
798.436	354.36
798.754	353.08
799.073	353.47
799.391	351.22
799.708	350.8
800.026	352.17
800.344	352.43
800.662	353.54
800.98	352.16
801.297	352.15
801.615	353.52
801.932	352.15
802.25	353.98
802.567	352.04
802.884	350.87
803.202	353.28
803.519	352.79
803.836	350.66
804.153	351.76
804.47	351.33
804.787	354.09
805.104	352.09
805.421	353.19
805.737	353.43
806.054	352.38
806.371	351.97
806.687	351.25
807.004	353.87
807.32	355.01
807.637	352.68
807.953	353.45
808.269	351.39
808.585	351.73
808.902	352.95
809.218	353.41
809.534	352.13
809.85	352.58
810.165	351.89
810.481	352.77
810.797	352.55
811.113	353.13
811.428	352.7
811.744	350.66
812.059	353.02
812.375	351.84
812.69	351.64
813.006	351.18
813.321	353.67
813.636	354.29
813.951	351.97
814.266	351.18
814.581	352.7
814.896	352.95
815.211	353.49
815.526	352.9
815.841	351.38
816.155	351.89
816.47	351.91
816.784	351.27
817.099	353.13
817.413	353.63
817.728	352.57
818.042	350.93
818.356	351.91
818.67	353.32
818.985	352.44
819.299	354.34
819.613	352.85
819.926	352.52
820.24	351.52
820.554	351.41
820.868	351.39
821.182	352.63
821.495	351.52
821.809	350.7
822.122	351.31
822.436	351.6
822.749	354.99
823.062	352.55
823.376	353.95
823.689	353.09
824.002	353.12
824.315	350.83
824.628	351.42
824.941	352.46
825.254	352.89
825.566	348.89
825.879	352.15
826.192	350.5
826.504	351.37
826.817	352.63
827.129	351.03
827.442	350.77
827.754	351.6
828.066	353.38
828.379	353.13
828.691	350.62
829.003	352.42
829.315	352.4
829.627	350.8
829.939	350.66
830.251	351.04
830.562	349.75
830.874	351.86
831.186	349.32
831.497	351.78
831.809	352.31
832.12	352.04
832.432	349.67
832.743	351.51
833.054	351.97
833.365	352.54
833.676	353.43
833.988	353.34
834.299	350.63
834.61	352.1
834.92	350.57
835.231	352.87
835.542	352.38
835.853	350.04
836.163	351.24
836.474	350.36
836.784	351.98
837.095	351.75
837.405	351.44
837.715	352.87
838.026	352.63
838.336	351.53
838.646	350.69
838.956	350.8
839.266	351.51
839.576	350.76
839.886	350.97
840.195	351.19
840.505	350.11
840.815	352.75
841.124	352.58
841.434	353.74
841.743	352.82
842.053	351.49
842.362	351.65
842.671	351.41
842.981	351.6
843.29	351.93
843.599	349.74
843.908	350.26
844.217	350.72
844.526	351.54
844.835	351.03
845.143	351.42
845.452	351.73
845.761	350.56
846.069	350.71
846.378	351.02
846.686	350.97
846.995	350.4
847.303	350.57
847.611	349.77
847.919	350.53
848.227	352.7
848.535	348.62
848.843	351.48
849.151	350.5
849.459	351.79
849.767	350.93
850.075	350.97
850.382	350.03
850.69	350.48
850.998	351.09
851.305	353.2
851.612	350.72
851.92	349.01
852.227	350.36
852.534	350.09
852.841	349.75
853.148	350.37
853.455	351.62
853.762	351.74
854.069	350.53
854.376	351.28
854.683	351.26
854.99	350.07
855.296	349.51
855.603	349.56
855.909	349.81
856.216	350.81
856.522	349.22
856.828	349.28
857.135	352.36
857.441	353.13
857.747	350.1
858.053	351.33
858.359	350.4
858.665	351.7
858.971	349.62
859.276	349.57
859.582	350.55
859.888	348.26
860.193	350.77
860.499	350.6
860.804	350.76
861.11	351.18
861.415	350.99
861.72	350.72
862.026	350.07
862.331	350.23
862.636	351.32
862.941	351.18
863.246	349.85
863.551	350.28
863.855	350.32
864.16	349.82
864.465	353.69
864.769	349.76
865.074	350.28
865.378	351.32
865.683	350.57
865.987	350.09
866.291	350.59
866.596	349.24
866.9	351.53
867.204	351.04
867.508	349.8
867.812	350.25
868.116	349.21
868.42	349.48
868.723	350.12
869.027	349.48
869.331	349.35
869.634	350.44
869.938	349.52
870.241	349.53
870.544	349.54
870.848	349.79
871.151	351.45
871.454	351.9
871.757	348.95
872.06	350.86
872.363	349.94
872.666	350.04
872.969	349.32
873.272	349.27
873.574	349.45
873.877	349.88
874.18	350.26
874.482	350.32
874.785	349.7
875.087	351.61
875.389	349.88
875.692	349.8
875.994	350.13
876.296	350.77
876.598	349.49
876.9	349.8
877.202	348.8
877.504	348.64
877.805	349.4
878.107	351.1
878.409	347.87
878.71	351.58
879.012	347.69
879.313	349.77
879.615	349.84
879.916	351.04
880.217	349.13
880.518	351.35
880.82	348.46
881.121	350.94
881.422	349.08
881.723	346.91
882.023	347.38
882.324	349.74
882.625	349.84
882.926	347.65
883.226	349.69
883.527	348.7
883.827	351.16
884.128	349.62
884.428	351.12
884.728	350.77
885.028	351.11
885.328	352.06
885.629	348.26
885.929	350.85
886.228	348.85
886.528	350.39
886.828	351.4
887.128	352.3
887.427	350.97
887.727	350.04
888.027	347.12
888.326	349.52
888.625	348.55
888.925	351.49
889.224	349.25
889.523	349.94
889.822	349.07
890.121	348.72
890.42	351.61
890.719	346.88
891.018	348.87
891.317	349.71
891.616	349.49
891.914	349.55
892.213	348.25
892.512	350.17
892.81	351.2
893.108	348.71
893.407	349.55
893.705	352.79
894.003	349.14
894.301	350
894.599	351.04
894.897	348.7
895.195	350.22
895.493	349.12
895.791	349.44
896.089	348.74
896.386	350.56
896.684	349.94
896.981	346.92
897.279	349.17
897.576	348.68
897.874	347.92
898.171	348.43
898.468	348.87
898.765	347.55
899.062	347.72
899.359	349.99
899.656	349.77
899.953	348.63
900.25	349.11
900.547	347.83
900.843	346.14
901.14	349.54
901.436	350.31
901.733	348.5
902.029	347.91
902.325	349.33
902.622	349.2
902.918	347.73
903.214	348
903.51	348.57
903.806	349.86
904.102	349.61
904.398	349.99
904.694	349.86
904.989	348.79
905.285	347.36
905.581	348.77
905.876	350.16
906.171	347.84
906.467	347.81
906.762	348.13
907.057	347.77
907.353	348.29
907.648	348.7
907.943	348.56
908.238	348.6
908.533	349
908.827	349.45
909.122	346.53
909.417	346.4
909.711	348.79
910.006	349.54
910.301	347.7
910.595	349.92
910.889	350.99
911.184	347.87
911.478	350.4
911.772	348.94
912.066	349.04
912.36	349.92
912.654	348.17
912.948	347.8
913.242	346.92
913.536	347.88
913.829	348.69
914.123	349.76
914.416	348.21
914.71	346.8
915.003	347.89
915.297	347.58
915.59	349.3
915.883	346.59
916.176	347.45
916.469	346.83
916.762	349.47
917.055	347.59
917.348	348.29
917.641	348.43
917.934	349.22
918.226	347.98
918.519	347.44
918.811	347.02
919.104	347.95
919.396	347.02
919.689	348.68
919.981	349.23
920.273	348.33
920.565	349.72
920.857	347.36
921.149	347.83
921.441	347.15
921.733	347.77
922.025	346.09
922.316	345.86
922.608	346.98
922.9	348.33
923.191	346.9
923.483	347.85
923.774	347.82
924.065	349.79
924.357	348.97
924.648	348.78
924.939	347.43
925.23	348.63
925.521	348.89
925.812	348.16
926.102	347.5
926.393	348.98
926.684	347.65
926.975	346.7
927.265	348.83
927.556	346.94
927.846	347.84
928.136	347.12
928.427	347.66
928.717	348.51
929.007	348.78
929.297	348.39
929.587	347.75
929.877	347.69
930.167	348.39
930.457	349.83
930.746	346.85
931.036	345.89
931.325	347.08
931.615	345.92
931.904	347.41
932.194	347.39
932.483	347.04
932.772	345.71
933.062	349.3
933.351	348.3
933.64	348.61
933.929	349.53
934.218	345.48
934.506	347.78
934.795	346.98
935.084	346.59
935.372	346.95
935.661	346.57
935.949	347.16
936.238	348.37
936.526	346.12
936.815	349.26
937.103	347.66
937.391	347.01
937.679	346.6
937.967	349.04
938.255	348.4
938.543	347.88
938.831	345.73
939.118	347.93
939.406	348.22
939.693	346.79
939.981	346.6
940.268	348.63
940.556	348.81
940.843	347.24
941.13	346.37
941.418	346.3
941.705	347.93
941.992	347.01
942.279	346.38
942.566	347.41
942.852	346.55
943.139	349.31
943.426	349.29
943.712	344.58
943.999	346.88
944.285	349.1
944.572	346.81
944.858	348.51
945.144	348.18
945.431	347.95
945.717	346.65
946.003	345.91
946.289	346.94
946.575	346.02
946.861	345.71
947.146	345.69
947.432	346.76
947.718	347.8
948.003	345.95
948.289	348.48
948.574	346.29
948.86	346.2
949.145	346.86
949.43	349.65
949.715	347.13
950	346.77
950.285	345.91
950.57	347.29
950.855	346.21
951.14	345.98
951.425	348.18
951.709	346.94
951.994	347.74
952.278	347.83
952.563	347.06
952.847	347.86
953.132	348.67
953.416	346.9
953.7	345.49
953.984	348.73
954.268	347.49
954.552	346.86
954.836	346.44
955.12	346.95
955.404	345.07
955.687	347.08
955.971	349.1
956.254	347.15
956.538	346.42
956.821	346.74
957.105	348.71
957.388	346.48
957.671	347.17
957.954	347.52
958.237	346.85
958.52	347.09
958.803	347.01
959.086	347.17
959.369	347.25
959.652	346.26
959.934	344.59
960.217	346.84
960.499	347.84
960.782	347.24
961.064	347.01
961.346	347.49
961.629	346.22
961.911	347.06
962.193	349.28
962.475	346.77
962.757	346.04
963.039	346.55
963.32	346.12
963.602	345.49
963.884	346.64
964.165	346.84
964.447	347.04
964.728	345.67
965.01	345.72
965.291	347.34
965.572	346.77
965.853	347.7
966.134	345.58
966.415	346.07
966.696	346.16
966.977	346.01
967.258	346.46
967.539	347
967.819	347.77
968.1	345.92
968.38	347.11
968.661	346.11
968.941	345.93
969.222	346.19
969.502	346.09
969.782	348.51
970.062	347.11
970.342	345.54
970.622	346.32
970.902	345.85
971.182	348.99
971.462	346.16
971.741	345.12
972.021	347.11
972.3	346.13
972.58	348.45
972.859	346.76
973.138	347.09
973.418	346.65
973.697	345.22
973.976	346.71
974.255	348.44
974.534	346.05
974.813	345.47
975.092	346.26
975.37	346.38
975.649	346.26
975.928	345.6
976.206	345.57
976.485	345.61
976.763	346.81
977.041	345.57
977.32	346.47
977.598	346.88
977.876	346.9
978.154	346.27
978.432	344.05
978.71	345.04
978.988	344.75
979.265	347.8
979.543	345.81
979.821	346.45
980.098	345.01
980.376	345.95
980.653	346.14
980.93	345.96
981.208	344.52
981.485	345.67
981.762	347.57
982.039	345.34
982.316	344.52
982.593	346.17
982.87	346.41
983.146	347.32
983.423	346.77
983.7	345.98
983.976	344.71
984.253	346.22
984.529	344.81
984.805	346.68
985.082	345.23
985.358	344.25
985.634	346.39
985.91	345.31
986.186	344.93
986.462	345.82
986.738	345.89
987.013	345.43
987.289	344.54
987.565	346.83
987.84	344.73
988.116	345.7
988.391	347.95
988.666	346.57
988.942	345.48
989.217	346.06
989.492	344.99
989.767	344.87
990.042	347.54
990.317	345.57
990.592	346.39
990.866	345.54
991.141	345.81
991.416	343.03
991.69	344.85
991.964	345.81
992.239	344.71
992.513	346.39
992.787	345.77
993.062	346
993.336	345.58
993.61	346.56
993.884	344.07
994.158	344.78
994.431	346.44
994.705	345.63
994.979	346.99
995.252	345.14
995.526	345.41
995.799	346.79
996.073	344.19
996.346	345.41
996.619	344.01
996.892	345.78
997.165	344.98
997.438	346.51
997.711	344.94
997.984	344.4
998.257	344.97
998.53	345.63
998.802	345.31
999.075	346.06
999.347	345.4
999.62	342.98
999.892	344.73
1000.165	346.01
1000.437	344.08
1000.709	346.91
1000.981	345.14
1001.253	345.62
1001.525	344.69
1001.797	346.97
1002.068	345.09
1002.34	344.87
1002.612	344.1
1002.883	342.98
1003.155	346.14
1003.426	344.26
1003.698	345.71
1003.969	347.4
1004.24	345.66
1004.511	345.22
1004.782	345.11
1005.053	344.74
1005.324	345.02
1005.595	345.07
1005.866	344.13
1006.136	345.94
1006.407	344.89
1006.678	343.87
1006.948	342.54
1007.218	346.54
1007.489	343.82
1007.759	346.25
1008.029	346.28
1008.299	343.94
1008.569	346.2
1008.839	345.27
1009.109	346.13
1009.379	344.57
1009.649	343.44
1009.918	345.38
1010.188	344.18
1010.458	344.63
1010.727	345.15
1010.996	346.05
1011.266	345.59
1011.535	344.7
1011.804	344.92
1012.073	345.04
1012.342	344.59
1012.611	343.96
1012.88	344.11
1013.149	344.87
1013.417	343.38
1013.686	344.99
1013.955	344.68
1014.223	346.23
1014.492	345.86
1014.76	345.78
1015.028	344.25
1015.296	344.06
1015.565	343.01
1015.833	343.84
1016.101	345.76
1016.368	343.05
1016.636	344.93
1016.904	345.52
1017.172	345.77
1017.439	344.13
1017.707	344.93
1017.974	343.76
1018.242	344.43
1018.509	345.41
1018.776	344.78
1019.044	342.77
1019.311	345.68
1019.578	344.7
1019.845	344.15
1020.112	346.69
1020.378	346.69
1020.645	346.69
