Data from 190619_Kr_36K_no_film_FLMS138901_18-00-59-699.txt Node
Date: Wed Jun 19 18:00:59 EDT 2019
User: pSAM
Spectrometer: FLMS13890
Trigger mode: 0
Integration Time (sec): 5.000000E-3
Scans to average: 1000
Electric dark correction enabled: true
Nonlinearity correction enabled: false
Boxcar width: 0
XAxis mode: Wavelengths
Number of Pixels in Spectrum: 2048
>>>>>Begin Spectral Data<<<<<
342.097	-55.61
342.483	-55.61
342.868	-55.61
343.254	-99.06
343.639	-100.68
344.025	-100.73
344.41	-97.98
344.796	-89.46
345.181	-79.14
345.567	-66.15
345.952	-55.12
346.337	-37.6
346.722	-19.03
347.107	-0.66
347.493	18.33
347.878	38.77
348.263	57.13
348.648	78.81
349.033	97.61
349.418	118.62
349.802	136.61
350.187	156.41
350.572	172.5
350.957	240.15
351.342	384.08
351.726	413.36
352.111	428.5
352.495	442.38
352.88	454.79
353.264	466.88
353.649	482.93
354.033	493.7
354.418	507.56
354.802	513.39
355.186	521.88
355.57	531.5
355.955	537.51
356.339	543.39
356.723	546.88
357.107	552.44
357.491	589.28
357.875	561.22
358.259	562.49
358.643	566.25
359.026	566.32
359.41	567.66
359.794	568.87
360.178	572.14
360.561	568.77
360.945	567.34
361.329	569.38
361.712	571.22
362.096	568.11
362.479	570.89
362.862	570.28
363.246	569.61
363.629	569.14
364.012	569.77
364.396	571.48
364.779	569.77
365.162	570.4
365.545	569.75
365.928	571.1
366.311	572.77
366.694	573.77
367.077	576.55
367.46	578.64
367.843	578.84
368.226	579.82
368.608	579.64
368.991	583.42
369.374	584.9
369.756	584.92
370.139	584.65
370.521	582.87
370.904	585.47
371.286	586.85
371.669	585.24
372.051	588.92
372.433	593.71
372.816	593.01
373.198	592.86
373.58	597.67
373.962	598.36
374.344	601.78
374.726	604.11
375.108	605.98
375.49	609.35
375.872	613.31
376.254	611.1
376.636	614.44
377.018	614.83
377.399	617.3
377.781	618.52
378.163	616.04
378.544	616.07
378.926	621.65
379.307	623.82
379.689	629
380.07	631.27
380.452	636.44
380.833	640.56
381.214	643.32
381.596	647.8
381.977	653.66
382.358	659.09
382.739	668.41
383.12	675.85
383.501	673.41
383.882	667.86
384.263	665.94
384.644	670.99
385.025	676.67
385.406	676.88
385.787	680.79
386.167	683.23
386.548	689.52
386.929	693.43
387.309	699.54
387.69	708.63
388.07	717.8
388.451	724.29
388.831	728.76
389.211	723.33
389.592	716.11
389.972	713.17
390.352	716.29
390.733	719.45
391.113	724.33
391.493	725.75
391.873	736.58
392.253	740.3
392.633	752.93
393.013	764.11
393.393	772.35
393.772	766.52
394.152	768.22
394.532	769.54
394.912	776.35
395.291	773.46
395.671	777.89
396.05	767.09
396.43	768.78
396.809	770.53
397.189	782.32
397.568	788.32
397.948	792.33
398.327	805.85
398.706	811.73
399.085	816.62
399.465	813.55
399.844	811.79
400.223	799.76
400.602	804.01
400.981	801.35
401.36	803.84
401.739	804.03
402.117	810.5
402.496	805.96
402.875	809.52
403.254	819.46
403.632	816.35
404.011	826.61
404.39	835.39
404.768	840.22
405.147	855.77
405.525	866.03
405.903	868.69
406.282	872.92
406.66	870.53
407.038	860.06
407.417	854.66
407.795	853.7
408.173	860.68
408.551	862.91
408.929	864.97
409.307	870.58
409.685	880.09
410.063	883.08
410.441	884.25
410.818	887.36
411.196	889.24
411.574	901.11
411.952	901.8
412.329	914.35
412.707	931.87
413.084	945.39
413.462	948.74
413.839	954.28
414.217	944.87
414.594	944.27
414.971	944.58
415.349	950.66
415.726	952.24
416.103	944.65
416.48	949.3
416.857	953.95
417.234	966.4
417.611	969.89
417.988	972.06
418.365	962.11
418.742	964.79
419.119	977.44
419.495	980.06
419.872	976.62
420.249	1006.97
420.625	1010.87
421.002	1029.09
421.379	1038.21
421.755	1058.54
422.131	1074.36
422.508	1076.49
422.884	1080.05
423.26	1087.63
423.637	1104.19
424.013	1082.44
424.389	1070.17
424.765	1056.68
425.141	1064.87
425.517	1061.96
425.893	1057.62
426.269	1054.84
426.645	1054.66
427.021	1086.03
427.397	1109.84
427.772	1124.09
428.148	1121.91
428.524	1118.93
428.899	1101.83
429.275	1117.72
429.651	1135.5
430.026	1161.45
430.401	1177.42
430.777	1172.69
431.152	1169.22
431.527	1159.06
431.903	1156.43
432.278	1152.39
432.653	1150.82
433.028	1157.97
433.403	1189.21
433.778	1225.99
434.153	1232.34
434.528	1221.65
434.903	1213.71
435.278	1219.27
435.653	1222.97
436.027	1224.52
436.402	1238.71
436.777	1249.37
437.151	1260.96
437.526	1269.55
437.9	1273.09
438.275	1292.22
438.649	1287.83
439.023	1300.3
439.398	1300.27
439.772	1296.73
440.146	1302.72
440.52	1317.18
440.895	1342.1
441.269	1381.82
441.643	1415.53
442.017	1411.65
442.391	1403.89
442.765	1394.63
443.138	1383.76
443.512	1404.73
443.886	1419.22
444.26	1418.16
444.633	1428.43
445.007	1428.25
445.38	1432.24
445.754	1435.81
446.127	1446.73
446.501	1447.8
446.874	1450.22
447.248	1437.43
447.621	1450.35
447.994	1444.25
448.367	1450.17
448.741	1455.57
449.114	1446.3
449.487	1465.68
449.86	1469.45
450.233	1471.5
450.606	1472.26
450.978	1464.2
451.351	1469.75
451.724	1470.91
452.097	1466.6
452.469	1482.6
452.842	1480.92
453.215	1485.25
453.587	1489.49
453.96	1498.17
454.332	1494.41
454.704	1514.63
455.077	1524.3
455.449	1540.2
455.821	1536.61
456.194	1558.58
456.566	1558.57
456.938	1575
457.31	1591.1
457.682	1626.77
458.054	1633.9
458.426	1653.87
458.798	1668.2
459.17	1674.02
459.541	1674.13
459.913	1653.84
460.285	1653.16
460.656	1655.26
461.028	1653.64
461.399	1670.53
461.771	1670.97
462.142	1687.48
462.514	1700.98
462.885	1718.95
463.256	1769.44
463.628	1782.78
463.999	1815.46
464.37	1856.97
464.741	1875.03
465.112	1852.92
465.483	1868.51
465.854	1876.56
466.225	1864.65
466.596	1859.01
466.967	1883.31
467.338	1887.32
467.708	1920.44
468.079	1936.04
468.45	1941.36
468.82	1951.71
469.191	1955.24
469.561	1951.05
469.932	1964.86
470.302	1954.52
470.673	1990.43
471.043	2007.57
471.413	2031.69
471.783	2064.58
472.154	2096.65
472.524	2117
472.894	2178.36
473.264	2212.04
473.634	2220.76
474.004	2222.15
474.374	2263.47
474.743	2271.95
475.113	2320.56
475.483	2342.56
475.853	2378.33
476.222	2401.03
476.592	2457.85
476.961	2445.76
477.331	2456.23
477.7	2497.27
478.07	2573.07
478.439	2580.95
478.808	2611.78
479.178	2631.49
479.547	2682.38
479.916	2710.88
480.285	2764.38
480.654	2782.13
481.023	2828.37
481.392	2859.83
481.761	2895.47
482.13	2933.96
482.499	2963.35
482.867	2983.42
483.236	3053.82
483.605	3105.44
483.973	3153.39
484.342	3232.19
484.71	3286.6
485.079	3340.83
485.447	3806.11
485.816	4303.97
486.184	4550.25
486.552	4259.84
486.921	3830.72
487.289	3608.96
487.657	3595.32
488.025	3580.97
488.393	3582.3
488.761	3603.65
489.129	3659.85
489.497	3694.07
489.865	3782.64
490.233	3816.83
490.6	3862.03
490.968	3865.44
491.336	3883.97
491.703	3908.7
492.071	3937.08
492.438	3986.69
492.806	4037.54
493.173	4114.18
493.541	4139.5
493.908	4144.06
494.275	4150.18
494.642	4152.38
495.01	4168.05
495.377	4193.91
495.744	4211.76
496.111	4295.32
496.478	4379.38
496.845	4395.89
497.211	4400.93
497.578	4396.2
497.945	4423.92
498.312	4498.26
498.678	4568.47
499.045	4636.38
499.412	4621.43
499.778	4639.82
500.145	4637.3
500.511	4640.3
500.878	4705.31
501.244	4764.69
501.61	4796.25
501.976	4812.38
502.343	4832.35
502.709	4901.12
503.075	4894.31
503.441	4903.65
503.807	4924.93
504.173	4901.71
504.539	4910.4
504.905	4945.38
505.27	4994.39
505.636	5011.07
506.002	5079.69
506.367	5095.46
506.733	5119.86
507.099	5103.34
507.464	5131.16
507.829	5149.17
508.195	5227.54
508.56	5238.49
508.926	5246.94
509.291	5247.36
509.656	5274.94
510.021	5291.98
510.386	5313.01
510.751	5326.32
511.116	5371.66
511.481	5407.97
511.846	5452.11
512.211	5457.63
512.576	5473.7
512.941	5493.7
513.305	5529.66
513.67	5569.05
514.035	5563.06
514.399	5606.26
514.764	5593.89
515.128	5613.29
515.493	5648.12
515.857	5671.13
516.221	5671.77
516.585	5734.13
516.95	5788.06
517.314	5807.18
517.678	5800.31
518.042	5832.45
518.406	5902.51
518.77	5888.07
519.134	5911.7
519.498	5970.65
519.862	5972.39
520.225	5945.66
520.589	5976.66
520.953	6019.36
521.316	6051.25
521.68	6052.11
522.043	6086.59
522.407	6078.94
522.77	6120.25
523.134	6202.06
523.497	6183.75
523.86	6237.4
524.223	6267.12
524.587	6265.12
524.95	6299.63
525.313	6360.25
525.676	6409.9
526.039	6428.29
526.402	6434.28
526.765	6491.08
527.127	6543.43
527.49	6582.43
527.853	6594.28
528.215	6579.5
528.578	6661.38
528.941	6675.35
529.303	6738.69
529.666	6744
530.028	6775.69
530.39	6816.75
530.753	6866.52
531.115	6883.1
531.477	6928.84
531.839	6994.06
532.201	7018.06
532.564	7050.36
532.926	7098.52
533.287	7191.81
533.649	7226.25
534.011	7295.01
534.373	7334.22
534.735	7352.59
535.097	7381.5
535.458	7444
535.82	7472
536.181	7479.84
536.543	7474.3
536.904	7465.49
537.266	7581.86
537.627	7648.79
537.988	7689.21
538.35	7742.71
538.711	7777.88
539.072	7812.42
539.433	7845.58
539.794	7915.83
540.155	7928.08
540.516	7974.76
540.877	7963.79
541.238	8027.45
541.599	8087.99
541.959	8118.36
542.32	8190.77
542.681	8227.29
543.041	8216.88
543.402	8255.39
543.762	8321
544.123	8324.44
544.483	8366.01
544.844	8406.56
545.204	8412.69
545.564	8416.05
545.924	8443.64
546.284	8458.96
546.644	8556.92
547.004	8591.21
547.364	8688.92
547.724	8729.13
548.084	8717.9
548.444	8787.13
548.804	8772.68
549.164	8818.03
549.523	8843.12
549.883	8830.83
550.242	8888.56
550.602	8937.75
550.961	8947.67
551.321	8925.22
551.68	9008.67
552.04	9043.86
552.399	9172
552.758	9161.22
553.117	9079.03
553.476	9168.98
553.835	9251.25
554.194	9324.65
554.553	9308.79
554.912	9345.43
555.271	9357.1
555.63	9381.4
555.989	9427.3
556.347	9443.97
556.706	9497.62
557.065	9495.15
557.423	9562.71
557.782	9591.48
558.14	9583.38
558.499	9645.67
558.857	9691.7
559.215	9699.96
559.573	9752.19
559.932	9785.47
560.29	9862.54
560.648	9931.28
561.006	9986.87
561.364	9972.71
561.722	9966.58
562.08	10018.91
562.438	9991.45
562.795	10072.96
563.153	10085.23
563.511	10101.89
563.868	10161.88
564.226	10213.66
564.583	10235.76
564.941	10227.04
565.298	10326.18
565.656	10276.39
566.013	10331.75
566.37	10385.34
566.727	10508.02
567.085	10622.23
567.442	10732.89
567.799	10771.12
568.156	10815.27
568.513	10898.33
568.87	11040.8
569.226	11251.08
569.583	11493.75
569.94	11564.8
570.297	11607.12
570.653	11495.82
571.01	11657.96
571.366	11914.93
571.723	12059.03
572.079	12030.33
572.436	11978.94
572.792	11865.42
573.148	12104.1
573.505	12302.31
573.861	12621.15
574.217	12635.45
574.573	12621.02
574.929	12573.99
575.285	12585.84
575.641	12694.03
575.997	12756.09
576.352	12839.89
576.708	12845.28
577.064	12989.6
577.42	13311.38
577.775	13628.35
578.131	13708.48
578.486	13537.9
578.842	13190.16
579.197	13216.12
579.552	13422.35
579.908	13632.21
580.263	13924.73
580.618	13757.45
580.973	13833.4
581.328	14485.71
581.683	15121.41
582.038	15484.45
582.393	14743.75
582.748	14011.24
583.103	13471.94
583.458	13181.97
583.812	13205.18
584.167	13570.88
584.522	13890.06
584.876	14204.33
585.231	14285.83
585.585	14383.17
585.939	14093.23
586.294	13927.93
586.648	13813.42
587.002	13821.59
587.356	14025.72
587.711	14363.42
588.065	14344.25
588.419	14514.81
588.773	14292.93
589.127	13986.55
589.48	13885.23
589.834	13719.07
590.188	13749.42
590.542	13738.68
590.895	13550.27
591.249	13666.29
591.603	13632.7
591.956	13686.54
592.309	13814.96
592.663	14096.12
593.016	14396.38
593.369	14648.39
593.723	14471.31
594.076	14382.91
594.429	14312.11
594.782	14579.72
595.135	14856.93
595.488	14850.44
595.841	14634.61
596.194	14407.24
596.547	14282.55
596.899	14148.6
597.252	14185.9
597.605	14329.73
597.957	14318.59
598.31	14353.13
598.662	14507.97
599.015	14637.38
599.367	14723.51
599.719	14599.03
600.072	14565.28
600.424	14678.15
600.776	14850.31
601.128	14934.07
601.48	14968.49
601.832	15028.55
602.184	14929.89
602.536	15023.63
602.888	15180.43
603.24	15483.14
603.592	15571.34
603.943	15420.07
604.295	15129.88
604.646	14898.8
604.998	14994.45
605.349	15112.66
605.701	15292.91
606.052	15295.7
606.404	15193.87
606.755	15242.92
607.106	15331.03
607.457	15289.14
607.808	15315.39
608.159	15277.51
608.51	15221.43
608.861	15211.19
609.212	15093.53
609.563	15278.07
609.914	15457.92
610.265	15485.41
610.615	15650.02
610.966	15558.74
611.316	15653.67
611.667	15740.13
612.017	15726.54
612.368	15463.14
612.718	15637
613.068	15586.31
613.419	15662.78
613.769	15644.44
614.119	15721.93
614.469	15804.95
614.819	15692.78
615.169	15692.89
615.519	15789.92
615.869	15827.03
616.219	15754.67
616.568	15624.39
616.918	15585.61
617.268	15780.54
617.617	15800.65
617.967	15847.13
618.316	15791.4
618.666	15727.74
619.015	15729.54
619.364	15753.49
619.714	16022
620.063	16066.37
620.412	16094.36
620.761	15996.12
621.11	16018.44
621.459	15913.77
621.808	15931.91
622.157	16107.37
622.506	16224.82
622.855	16301.87
623.203	16313.98
623.552	16448.25
623.901	16432.1
624.249	16364.4
624.598	16525.9
624.946	16444.62
625.295	16328.37
625.643	16264.63
625.991	16368.61
626.34	16347.74
626.688	16424.29
627.036	16546.98
627.384	16516.9
627.732	16595.76
628.08	16529.6
628.428	16398.3
628.776	16456.57
629.124	16537.19
629.471	16689.38
629.819	16755.34
630.167	16672.64
630.514	16637.5
630.862	16519.43
631.209	16647.19
631.557	16752.46
631.904	16756.7
632.251	16840.43
632.599	16811.44
632.946	16889.32
633.293	16998.29
633.64	16915.5
633.987	16888.93
634.334	16879.08
634.681	16886.17
635.028	16944.58
635.375	16923.64
635.722	16969.83
636.068	16954.41
636.415	16997.34
636.762	17110.25
637.108	17121.87
637.455	17077.22
637.801	17164.38
638.147	17247.51
638.494	17257.95
638.84	17473.23
639.186	17337.98
639.532	17202.87
639.878	17241.09
640.225	17349.84
640.571	17415.05
640.916	17415.69
641.262	17458.48
641.608	17394.99
641.954	17535.21
642.3	17610.99
642.645	17592.25
642.991	17575.89
643.337	17684.1
643.682	17691.19
644.028	17619.24
644.373	17670.32
644.718	17669.8
645.064	17641.83
645.409	17612.45
645.754	17710.04
646.099	17773.23
646.444	17794.59
646.789	17975.52
647.134	17906.97
647.479	17897.36
647.824	17924.45
648.169	17989.11
648.513	18155.5
648.858	18115.93
649.203	18171.29
649.547	18203.13
649.892	18130
650.236	18135.72
650.581	18170.91
650.925	18098.73
651.269	18062.4
651.613	18103.61
651.958	18106.17
652.302	18266.48
652.646	18217.35
652.99	18124.69
653.334	18243.42
653.678	18168.55
654.022	18311.11
654.365	18391.82
654.709	18475.19
655.053	18453.59
655.396	18695.62
655.74	24976.63
656.083	39501.43
656.427	45323.25
656.77	43463.16
657.114	28074.86
657.457	21036.3
657.8	19161.5
658.143	18639.19
658.486	18600.82
658.83	18664.34
659.173	18596.55
659.516	18546.12
659.858	18438.02
660.201	18413.35
660.544	18389.98
660.887	18422.85
661.229	18547.78
661.572	18473.91
661.915	18509.6
662.257	18481.23
662.6	18549.7
662.942	18462.89
663.284	18446.66
663.627	18489.54
663.969	18460.4
664.311	18652.44
664.653	18708.58
664.995	18771.19
665.337	18731.79
665.679	18634.96
666.021	18569.62
666.363	18391.31
666.705	18459.5
667.046	18470.94
667.388	18398.82
667.73	18424.55
668.071	18424.79
668.413	18328.35
668.754	18324.89
669.096	18278.98
669.437	18509.12
669.778	18533.8
670.119	18539.5
670.461	18468.48
670.802	18534.73
671.143	18441.29
671.484	18433.32
671.825	18493.38
672.165	18654.19
672.506	18791.14
672.847	18788
673.188	18810.64
673.528	18717.57
673.869	18582.04
674.21	18644.28
674.55	18667.89
674.89	18594.54
675.231	18527.98
675.571	18604.91
675.911	18582.88
676.252	18697.27
676.592	18804.34
676.932	18600.06
677.272	18545.85
677.612	18641.25
677.952	18687.84
678.292	18647.3
678.631	18648.33
678.971	18617.85
679.311	18669.62
679.651	18635.7
679.99	18668.12
680.33	18718.18
680.669	18695.16
681.009	18658.6
681.348	18652.65
681.687	18599.07
682.026	18612.81
682.366	18600.42
682.705	18611.09
683.044	18550.21
683.383	18497.95
683.722	18473.56
684.061	18502.14
684.4	18598.41
684.738	18553.66
685.077	18517.26
685.416	18642.02
685.754	18794.27
686.093	18761.74
686.431	18810.04
686.77	18694.79
687.108	18725.37
687.447	18597.51
687.785	18646.64
688.123	18619.62
688.461	18776.2
688.799	18639.82
689.137	18621.06
689.475	18664.07
689.813	18550.55
690.151	18615.16
690.489	18562.82
690.827	18617.24
691.164	18681.77
691.502	18695.15
691.84	18703.53
692.177	18705.98
692.515	18669.58
692.852	18550.39
693.189	18738.6
693.527	18736.81
693.864	18676.49
694.201	18701.22
694.538	18599.98
694.875	18600.63
695.212	18544.53
695.549	18608.51
695.886	18533.05
696.223	18522.51
696.56	18616.22
696.897	18617.21
697.233	18740.94
697.57	18711.55
697.906	18747.26
698.243	18675.09
698.579	18536.34
698.916	18553.68
699.252	18477.3
699.588	18551.65
699.924	18630.46
700.261	18607.21
700.597	18561.99
700.933	18439.41
701.269	18318.11
701.605	18388.58
701.941	18326.09
702.276	18351.32
702.612	18363.07
702.948	18515.59
703.283	18493.5
703.619	18524.72
703.954	18539.86
704.29	18360.16
704.625	18334.09
704.961	18372.65
705.296	18526.14
705.631	18419.14
705.966	18413.87
706.301	18517.49
706.637	18641.28
706.972	18772.45
707.306	18691.05
707.641	18538.15
707.976	18415.66
708.311	18511.82
708.646	18591.83
708.98	18436.65
709.315	18349.15
709.649	18301.05
709.984	18357.76
710.318	18222.4
710.653	18296.23
710.987	18347.2
711.321	18436.74
711.655	18358.46
711.989	18248.98
712.324	18260.52
712.658	18230.23
712.992	18351.32
713.325	18293.84
713.659	18374.84
713.993	18260.92
714.327	18241.82
714.66	18332.88
714.994	18313.05
715.328	18257.48
715.661	18277.76
715.994	18367.82
716.328	18167.52
716.661	18092.81
716.994	18127.14
717.328	18085.01
717.661	18105.44
717.994	18119.34
718.327	18163.54
718.66	18146.15
718.993	18210.03
719.325	18174
719.658	18088.04
719.991	18001.88
720.324	17923.09
720.656	17800.95
720.989	17833.61
721.321	17922.4
721.654	17989.89
721.986	17925.12
722.318	17882.26
722.651	17946.11
722.983	17695.51
723.315	17642.97
723.647	17741.56
723.979	17828.93
724.311	17821.37
724.643	17706.04
724.975	17697.07
725.307	17660.9
725.638	17817.94
725.97	17845.58
726.302	17958.71
726.633	17834.18
726.965	17885.99
727.296	17749.92
727.628	17670.53
727.959	17552
728.29	17634.5
728.621	17557.5
728.952	17690.23
729.284	17578.41
729.615	17707.79
729.945	17703.47
730.276	17633.15
730.607	17563.05
730.938	17418.18
731.269	17374.86
731.599	17380.16
731.93	17419.34
732.261	17191
732.591	17172.29
732.922	17225.88
733.252	17126.8
733.582	17176.52
733.912	17210.13
734.243	17174.62
734.573	17208.15
734.903	17350.71
735.233	17199.4
735.563	17087.53
735.893	17014.93
736.223	16957.9
736.552	16922.07
736.882	16899.82
737.212	16920.71
737.541	16794.14
737.871	16795.9
738.2	16775.4
738.53	16619.2
738.859	16456.89
739.188	16316.41
739.518	16398.22
739.847	16587.78
740.176	16524.09
740.505	16545.69
740.834	16510.29
741.163	16383.64
741.492	16149.45
741.821	16044.89
742.15	15940.49
742.478	15986.69
742.807	15905.46
743.136	15966.04
743.464	15925.04
743.793	15931.45
744.121	15883.4
744.449	15788.5
744.778	15752.1
745.106	15828.46
745.434	15756.54
745.762	15542.38
746.09	15478.48
746.418	15518.32
746.746	15555.12
747.074	15531.81
747.402	15630.68
747.73	15539.65
748.057	15586.85
748.385	15518.48
748.712	15437.59
749.04	15327.18
749.367	15288.91
749.695	15269.28
750.022	15411.02
750.349	15444.64
750.677	15419.96
751.004	15209.22
751.331	15087.32
751.658	15045.94
751.985	14925.05
752.312	14796.47
752.639	14741.78
752.966	14733.56
753.292	14651.58
753.619	14799.8
753.946	14780.74
754.272	14689.97
754.599	14687.59
754.925	14681.63
755.251	14762.73
755.578	14813.11
755.904	14724.2
756.23	14551.33
756.556	14487.28
756.882	14560.88
757.208	14428.24
757.534	14373.71
757.86	14349.39
758.186	14319.31
758.512	14256.78
758.838	14251.59
759.163	14205.9
759.489	14158.51
759.814	14013.11
760.14	14074.8
760.465	14171.98
760.791	14047.26
761.116	14017.68
761.441	13970.48
761.766	13964.84
762.092	13788.54
762.417	13654.84
762.742	13639.36
763.066	13583.53
763.391	13639.55
763.716	13688.45
764.041	13680.49
764.366	13563.4
764.69	13426.95
765.015	13348.15
765.339	13415.5
765.664	13522.47
765.988	13508.71
766.312	13398.04
766.637	13253.8
766.961	13132.45
767.285	13042.14
767.609	12945.58
767.933	12911.15
768.257	13013.24
768.581	13004.82
768.905	13119.78
769.229	13122.38
769.552	13084.91
769.876	13142.79
770.2	12935.65
770.523	12877.58
770.847	12731.35
771.17	12739.85
771.493	12868.39
771.817	12903.83
772.14	12701.22
772.463	12532.88
772.786	12473.14
773.109	12397.86
773.432	12540.25
773.755	12438.69
774.078	12311.34
774.401	12230.5
774.724	12131.45
775.046	12166.45
775.369	12133.95
775.692	12043.42
776.014	11937.26
776.336	11889.13
776.659	11951.52
776.981	11978.89
777.303	11964.06
777.626	11890.02
777.948	11817.81
778.27	11823.52
778.592	11866.98
778.914	11902.02
779.236	11803.88
779.557	11754.26
779.879	11756.63
780.201	11654.58
780.523	11700.27
780.844	11664.9
781.166	11726
781.487	11752.02
781.809	11711.59
782.13	11792.8
782.451	11718.87
782.772	11801.49
783.094	11802.25
783.415	11912.56
783.736	11842.36
784.057	11896.15
784.378	11945.19
784.698	11959.62
785.019	11969.62
785.34	11722.57
785.661	11816.81
785.981	11966.37
786.302	12069.38
786.622	12084.56
786.943	12047.98
787.263	11778.1
787.583	11670.22
787.903	11683.65
788.224	11708.87
788.544	11874.96
788.864	11889.06
789.184	12005.68
789.504	11917.92
789.824	11892.85
790.143	11924.55
790.463	11911.13
790.783	11860.46
791.102	11841.02
791.422	11776.86
791.741	11698.74
792.061	11749.9
792.38	11877.01
792.699	11792.57
793.019	11735.83
793.338	11700.95
793.657	11707.87
793.976	11924.96
794.295	11942.04
794.614	11997.11
794.933	11907.18
795.252	11871.99
795.57	11812.62
795.889	11791.84
796.208	11766.6
796.526	11600.06
796.845	11544.39
797.163	11489.85
797.482	11567.78
797.8	11672.04
798.118	11683.58
798.436	11753.1
798.754	11678.4
799.073	11455.92
799.391	11378.13
799.708	11379.5
800.026	11348.33
800.344	11290.09
800.662	11247.82
800.98	11182.14
801.297	11149.2
801.615	11195.62
801.932	11259.87
802.25	11187.7
802.567	11046.61
802.884	10949.81
803.202	10854.62
803.519	10883.44
803.836	11011.65
804.153	11010.27
804.47	11010.06
804.787	10881.75
805.104	10823.97
805.421	10876.78
805.737	10960.36
806.054	11020.34
806.371	11057.28
806.687	10991.68
807.004	10859.08
807.32	10772.94
807.637	10698.76
807.953	10644.52
808.269	10643.46
808.585	10695.81
808.902	10542.62
809.218	10447.5
809.534	10443.65
809.85	10456.94
810.165	10476.06
810.481	10539.34
810.797	10436.07
811.113	10298.29
811.428	10218.75
811.744	10219.83
812.059	10274.85
812.375	10306.66
812.69	10268.36
813.006	10139.46
813.321	10048.56
813.636	9998.83
813.951	10068.09
814.266	10131.23
814.581	10161.78
814.896	10126.56
815.211	10047.11
815.526	9951.29
815.841	9844.53
816.155	9881.33
816.47	9896.4
816.784	9933.99
817.099	9838.97
817.413	9666.92
817.728	9568.29
818.042	9490.97
818.356	9529.26
818.67	9559.46
818.985	9585.49
819.299	9502.19
819.613	9433.59
819.926	9298.37
820.24	9321.86
820.554	9396.56
820.868	9515.95
821.182	9444.56
821.495	9388.47
821.809	9201.63
822.122	9132.82
822.436	9119.73
822.749	9083.82
823.062	9064.45
823.376	9035.01
823.689	8926.86
824.002	8842.84
824.315	8800.19
824.628	8872.46
824.941	8944.28
825.254	8881.06
825.566	8762.63
825.879	8693.96
826.192	8640.58
826.504	8635.24
826.817	8732.41
827.129	8816.28
827.442	8769.7
827.754	8648.53
828.066	8502.69
828.379	8373.99
828.691	8449.67
829.003	8487.4
829.315	8612.18
829.627	8638.21
829.939	8521.92
830.251	8431.07
830.562	8306.11
830.874	8310.91
831.186	8305.13
831.497	8392.21
831.809	8378.02
832.12	8308.36
832.432	8228.29
832.743	8172.32
833.054	8153.33
833.365	8122.04
833.676	8138.93
833.988	8141.67
834.299	8107
834.61	8103.81
834.92	8049.81
835.231	8044.31
835.542	8047.85
835.853	8023.11
836.163	8000.38
836.474	7906.26
836.784	7813.44
837.095	7745.85
837.405	7704.53
837.715	7740.98
838.026	7803.31
838.336	7813.19
838.646	7787.95
838.956	7652.41
839.266	7589.13
839.576	7535.28
839.886	7578.89
840.195	7677.24
840.505	7667.12
840.815	7613.45
841.124	7488.02
841.434	7400.97
841.743	7298.73
842.053	7296.71
842.362	7287.35
842.671	7299.31
842.981	7312.5
843.29	7254.39
843.599	7230.79
843.908	7156.75
844.217	7112.01
844.526	7149.93
844.835	7184.92
845.143	7191.62
845.452	7140.94
845.761	7105.81
846.069	6979.54
846.378	6987.68
846.686	6918.82
846.995	6900.23
847.303	6905.59
847.611	6938.62
847.919	6875.3
848.227	6836.54
848.535	6753.96
848.843	6733.71
849.151	6756.66
849.459	6830.07
849.767	6805.66
850.075	6794.37
850.382	6707.59
850.69	6621.79
850.998	6552.95
851.305	6493.81
851.612	6521.51
851.92	6551
852.227	6532.94
852.534	6504.35
852.841	6455.83
853.148	6432.98
853.455	6527.93
853.762	6555.03
854.069	6571.49
854.376	6535.26
854.683	6494.06
854.99	6404.76
855.296	6329.8
855.603	6242.82
855.909	6188.17
856.216	6169.78
856.522	6191.6
856.828	6207.75
857.135	6177.27
857.441	6126.41
857.747	6043.61
858.053	6024.93
858.359	5980.62
858.665	6041.25
858.971	6039.12
859.276	5996.65
859.582	5922.8
859.888	5866.91
860.193	5807.71
860.499	5815.79
860.804	5878.34
861.11	5870.4
861.415	5893.03
861.72	5882.52
862.026	5781.39
862.331	5717.11
862.636	5646.82
862.941	5618.36
863.246	5597.16
863.551	5613.88
863.855	5612.81
864.16	5589.83
864.465	5539.95
864.769	5472.56
865.074	5437.78
865.378	5431.61
865.683	5449.35
865.987	5500.42
866.291	5464.16
866.596	5464.73
866.9	5399.89
867.204	5341.98
867.508	5278.29
867.812	5279.25
868.116	5294.24
868.42	5286.92
868.723	5287.47
869.027	5264.99
869.331	5214.04
869.634	5161.57
869.938	5082.92
870.241	5082.37
870.544	5102.86
870.848	5138.25
871.151	5145.26
871.454	5120.81
871.757	5059.19
872.06	4994.35
872.363	4943.56
872.666	4952.5
872.969	4939.24
873.272	4946.56
873.574	4940.99
873.877	4915.24
874.18	4854.59
874.482	4789.88
874.785	4767.15
875.087	4705.43
875.389	4728.43
875.692	4739.51
875.994	4734.1
876.296	4727.92
876.598	4709.63
876.9	4656.27
877.202	4613.36
877.504	4610.89
877.805	4617.15
878.107	4629.98
878.409	4581.99
878.71	4566.16
879.012	4534.79
879.313	4482.19
879.615	4484.85
879.916	4457.58
880.217	4453.55
880.518	4455.71
880.82	4465.33
881.121	4420.9
881.422	4368.74
881.723	4303.27
882.023	4236.72
882.324	4212.94
882.625	4194.18
882.926	4185.28
883.226	4224.89
883.527	4211.4
883.827	4220.92
884.128	4200.48
884.428	4168.27
884.728	4088.12
885.028	4030.43
885.328	3990.8
885.629	3977.47
885.929	4007.13
886.228	4016.91
886.528	3985.28
886.828	3951.17
887.128	3915.85
887.427	3866.1
887.727	3843.11
888.027	3814.81
888.326	3822.42
888.625	3824.94
888.925	3770.31
889.224	3760.75
889.523	3720.78
889.822	3671.39
890.121	3634.23
890.42	3610.04
890.719	3617.01
891.018	3593
891.317	3619.86
891.616	3624.5
891.914	3600.19
892.213	3578.95
892.512	3553.54
892.81	3533.55
893.108	3536.37
893.407	3568.62
893.705	3617.97
894.003	3611.51
894.301	3594.76
894.599	3575.66
894.897	3571.55
895.195	3554
895.493	3525.04
895.791	3531.73
896.089	3541.85
896.386	3543.67
896.684	3574.45
896.981	3568.99
897.279	3545.52
897.576	3544.82
897.874	3483.38
898.171	3472.24
898.468	3465.4
898.765	3482.73
899.062	3531.86
899.359	3544.98
899.656	3539.63
899.953	3514.69
900.25	3488.81
900.547	3449.01
900.843	3423.64
901.14	3436.98
901.436	3462.31
901.733	3485.95
902.029	3489.5
902.325	3502.07
902.622	3471.67
902.918	3457.95
903.214	3438.99
903.51	3407.29
903.806	3413.87
904.102	3419.13
904.398	3431.98
904.694	3422.85
904.989	3450.6
905.285	3410.78
905.581	3364.68
905.876	3351.56
906.171	3326.25
906.467	3309.14
906.762	3318.31
907.057	3325.88
907.353	3351.31
907.648	3340.56
907.943	3317.67
908.238	3291.42
908.533	3241.41
908.827	3220.81
909.122	3210.72
909.417	3223.76
909.711	3253.2
910.006	3259.02
910.301	3229.28
910.595	3227.84
910.889	3219.93
911.184	3163.12
911.478	3151.7
911.772	3153.48
912.066	3143.27
912.36	3132.72
912.654	3111.77
912.948	3087.34
913.242	3095.43
913.536	3053.32
913.829	3013.63
914.123	2977.32
914.416	2936.35
914.71	2931.98
915.003	2951.91
915.297	2955.06
915.59	2952.6
915.883	2945.91
916.176	2939.17
916.469	2905.54
916.762	2882.8
917.055	2849.14
917.348	2830.53
917.641	2850.41
917.934	2870.52
918.226	2873.3
918.519	2861.13
918.811	2847.24
919.104	2817.07
919.396	2765.25
919.689	2719.19
919.981	2695
920.273	2682.83
920.565	2683.68
920.857	2669.01
921.149	2668.6
921.441	2654.03
921.733	2635.99
922.025	2605.76
922.316	2583.18
922.608	2559.18
922.9	2534.15
923.191	2516.36
923.483	2522.74
923.774	2502.59
924.065	2496.15
924.357	2481.2
924.648	2444.6
924.939	2427.45
925.23	2405.68
925.521	2391.35
925.812	2382.03
926.102	2371.47
926.393	2377.29
926.684	2380.72
926.975	2371.05
927.265	2351.34
927.556	2325.74
927.846	2291.7
928.136	2255.78
928.427	2226.73
928.717	2212.89
929.007	2211.37
929.297	2201.85
929.587	2195.82
929.877	2198.32
930.167	2197.94
930.457	2176.66
930.746	2142.5
931.036	2117.55
931.325	2081.27
931.615	2062.41
931.904	2067.65
932.194	2056.11
932.483	2052.67
932.772	2060.35
933.062	2050.45
933.351	2024.98
933.64	1979.44
933.929	1960.86
934.218	1946.39
934.506	1939.68
934.795	1936.85
935.084	1931.74
935.372	1919.7
935.661	1899.07
935.949	1873.53
936.238	1853.87
936.526	1818.53
936.815	1796.57
937.103	1778.84
937.391	1770.94
937.679	1757.46
937.967	1753.33
938.255	1743.6
938.543	1742.58
938.831	1722.73
939.118	1709.93
939.406	1681.9
939.693	1649.83
939.981	1616.87
940.268	1602.91
940.556	1584.43
940.843	1584.27
941.13	1578.24
941.418	1586.29
941.705	1582.21
941.992	1572.47
942.279	1560.64
942.566	1544.79
942.852	1525.84
943.139	1506.08
943.426	1479.86
943.712	1466.82
943.999	1458.92
944.285	1469.23
944.572	1464.56
944.858	1467.04
945.144	1466.06
945.431	1444.9
945.717	1419.02
946.003	1401.34
946.289	1376.63
946.575	1359.02
946.861	1347.32
947.146	1343.69
947.432	1348.18
947.718	1339.7
948.003	1335.56
948.289	1328.95
948.574	1313.56
948.86	1300.46
949.145	1286.76
949.43	1274.12
949.715	1266.22
950	1259.32
950.285	1254.04
950.57	1250.92
950.855	1242.78
951.14	1225.53
951.425	1205.52
951.709	1187.22
951.994	1163.69
952.278	1149.49
952.563	1131.24
952.847	1115.75
953.132	1114.3
953.416	1116.01
953.7	1122
953.984	1121.79
954.268	1119.51
954.552	1107.29
954.836	1095.8
955.12	1079.78
955.404	1065.4
955.687	1055.77
955.971	1048.6
956.254	1044.99
956.538	1043.5
956.821	1039.3
957.105	1031.49
957.388	1026.62
957.671	1010.09
957.954	1001.46
958.237	992.91
958.52	984.2
958.803	977.24
959.086	968.44
959.369	962.98
959.652	960.55
959.934	955.11
960.217	945.43
960.499	936.16
960.782	921.77
961.064	908
961.346	894
961.629	884.95
961.911	876.87
962.193	874.83
962.475	872.82
962.757	873.89
963.039	872.61
963.32	871.37
963.602	861.21
963.884	852.49
964.165	844.37
964.447	835.7
964.728	824.14
965.01	814.92
965.291	803.75
965.572	800.88
965.853	801.47
966.134	798.71
966.415	795.86
966.696	789.86
966.977	780.63
967.258	777.66
967.539	765
967.819	756.93
968.1	746.56
968.38	742.2
968.661	738.64
968.941	734.31
969.222	732.31
969.502	730.04
969.782	726.9
970.062	722.91
970.342	718.25
970.622	709.72
970.902	701.64
971.182	694.7
971.462	685
971.741	681.09
972.021	677.17
972.3	670.94
972.58	668.86
972.859	664.28
973.138	661.74
973.418	654.68
973.697	648.53
973.976	644.11
974.255	638.78
974.534	633.31
974.813	630.25
975.092	627.06
975.37	624.88
975.649	620.6
975.928	617.51
976.206	612.72
976.485	608.34
976.763	603.23
977.041	596.17
977.32	592.74
977.598	585.76
977.876	579.51
978.154	575.65
978.432	570.82
978.71	564.95
978.988	562.39
979.265	561.58
979.543	560.19
979.821	553.98
980.098	550.88
980.376	545.95
980.653	540.43
980.93	534.74
981.208	530.67
981.485	527.14
981.762	527.43
982.039	526.11
982.316	522.76
982.593	522.73
982.87	520.35
983.146	517.05
983.423	514.45
983.7	508.4
983.976	507.97
984.253	501.78
984.529	498.56
984.805	498.54
985.082	495.17
985.358	492.37
985.634	490.55
985.91	487.08
986.186	483.57
986.462	481.15
986.738	481.51
987.013	475.84
987.289	472.47
987.565	469
987.84	465.61
988.116	463.09
988.391	461.38
988.666	462.36
988.942	460.26
989.217	459.39
989.492	456.37
989.767	453.99
990.042	454.05
990.317	449.28
990.592	446.36
990.866	442.58
991.141	442.75
991.416	439.37
991.69	439.34
991.964	434.64
992.239	434.14
992.513	433.83
992.787	429.17
993.062	428.67
993.336	428.89
993.61	426.61
993.884	425.68
994.158	426.41
994.431	422.82
994.705	421.55
994.979	419.73
995.252	418.71
995.526	416.48
995.799	413.62
996.073	409.62
996.346	412.45
996.619	410.69
996.892	407.33
997.165	407.39
997.438	406.71
997.711	405.65
997.984	404.5
998.257	403.88
998.53	402.63
998.802	400.86
999.075	402.38
999.347	400.96
999.62	398.86
999.892	397.33
1000.165	396.5
1000.437	394.77
1000.709	394.25
1000.981	394.97
1001.253	390.72
1001.525	391.64
1001.797	390.08
1002.068	386.89
1002.34	389.3
1002.612	388.61
1002.883	386.53
1003.155	386.86
1003.426	384.78
1003.698	384.39
1003.969	385.15
1004.24	383.29
1004.511	382.82
1004.782	382.82
1005.053	380.86
1005.324	378.15
1005.595	378.23
1005.866	378.29
1006.136	376.85
1006.407	376.84
1006.678	377.17
1006.948	376.01
1007.218	378.1
1007.489	376.22
1007.759	373.11
1008.029	374.91
1008.299	374.12
1008.569	374.09
1008.839	373.7
1009.109	372.58
1009.379	371.67
1009.649	373.28
1009.918	371.05
1010.188	372.08
1010.458	370.9
1010.727	372.4
1010.996	371.67
1011.266	369.23
1011.535	367.7
1011.804	367.83
1012.073	368.09
1012.342	369.06
1012.611	369.24
1012.88	367.33
1013.149	367.62
1013.417	368.21
1013.686	367.34
1013.955	367.11
1014.223	367.5
1014.492	365.54
1014.76	364.17
1015.028	365.6
1015.296	365.88
1015.565	365.04
1015.833	364.33
1016.101	364.26
1016.368	364.88
1016.636	363.15
1016.904	362.36
1017.172	362.5
1017.439	363.93
1017.707	363.01
1017.974	362.43
1018.242	361.62
1018.509	363.7
1018.776	362.33
1019.044	362.8
1019.311	362.95
1019.578	360.66
1019.845	360.25
1020.112	362.18
1020.378	362.18
1020.645	362.18
