Data from 190514_Kr_film_FLMS138901_15-56-24-641.txt Node
Date: Tue May 14 15:56:24 EDT 2019
User: pSAM
Spectrometer: FLMS13890
Trigger mode: 0
Integration Time (sec): 5.000000E-3
Scans to average: 1000
Electric dark correction enabled: true
Nonlinearity correction enabled: false
Boxcar width: 0
XAxis mode: Wavelengths
Number of Pixels in Spectrum: 2048
>>>>>Begin Spectral Data<<<<<
342.097	-46.19
342.483	-46.19
342.868	-46.19
343.254	-91.12
343.639	-95.85
344.025	-95.15
344.41	-93.51
344.796	-85.67
345.181	-76.59
345.567	-65.62
345.952	-51.39
346.337	-37.12
346.722	-20.41
347.107	-1.47
347.493	16.66
347.878	35.87
348.263	55.11
348.648	75.42
349.033	95.27
349.418	116.18
349.802	132.42
350.187	149.86
350.572	168.32
350.957	251.52
351.342	442.38
351.726	469.32
352.111	487.26
352.495	500.29
352.88	516.65
353.264	528.32
353.649	545.03
354.033	555.43
354.418	566.25
354.802	577.58
355.186	587.02
355.57	596.47
355.955	604.48
356.339	609.68
356.723	616.33
357.107	624.56
357.491	628.67
357.875	633.03
358.259	631.32
358.643	638.98
359.026	641.97
359.41	641.58
359.794	645.25
360.178	647.01
360.561	646.69
360.945	647.59
361.329	649.59
361.712	649.34
362.096	650.08
362.479	649.09
362.862	653.04
363.246	651.07
363.629	652.9
364.012	650.38
364.396	652.19
364.779	655.17
365.162	653.9
365.545	655.99
365.928	658.36
366.311	659.26
366.694	663.89
367.077	668.72
367.46	666.77
367.843	668.05
368.226	668.5
368.608	669.65
368.991	672.9
369.374	672.64
369.756	673.71
370.139	672.61
370.521	672.58
370.904	673.5
371.286	677.88
371.669	679.33
372.051	679.82
372.433	684.24
372.816	687.71
373.198	689.1
373.58	694.4
373.962	694.4
374.344	697.3
374.726	702.4
375.108	704.16
375.49	710.93
375.872	710.96
376.254	707.92
376.636	709.05
377.018	713.51
377.399	714.8
377.781	716.62
378.163	713.83
378.544	714.47
378.926	723.58
379.307	731.28
379.689	737.6
380.07	739.12
380.452	745.35
380.833	750.59
381.214	750.1
381.596	757.84
381.977	771.22
382.358	776.46
382.739	788.02
383.12	788.04
383.501	787.51
383.882	788.39
384.263	787.99
384.644	790.96
385.025	797.39
385.406	795.61
385.787	802.06
386.167	808.29
386.548	816.51
386.929	827.67
387.309	832.68
387.69	846.73
388.07	857.5
388.451	856.32
388.831	856.48
389.211	850.85
389.592	845
389.972	842.48
390.352	850.68
390.733	856.53
391.113	859.82
391.493	865.67
391.873	880.73
392.253	895.15
392.633	910.81
393.013	913.06
393.393	913.25
393.772	910.4
394.152	916.9
394.532	918.37
394.912	923.78
395.291	918.38
395.671	924.08
396.05	917.15
396.43	922.32
396.809	924.6
397.189	939.91
397.568	953.37
397.948	959.35
398.327	973.85
398.706	978.07
399.085	976.6
399.465	973.31
399.844	966.04
400.223	955.92
400.602	964.81
400.981	962.71
401.36	964.35
401.739	967.97
402.117	977.03
402.496	969.93
402.875	975.55
403.254	988.92
403.632	991.09
404.011	1003.49
404.39	1016.04
404.768	1025.82
405.147	1043.04
405.525	1050.54
405.903	1045.31
406.282	1044.67
406.66	1041.84
407.038	1030.09
407.417	1026.62
407.795	1035.03
408.173	1039.35
408.551	1048.49
408.929	1051.62
409.307	1062.8
409.685	1067.71
410.063	1069.84
410.441	1068.35
410.818	1072.42
411.196	1079.55
411.574	1097.18
411.952	1106.27
412.329	1124.45
412.707	1149.63
413.084	1149.05
413.462	1146.62
413.839	1152.08
414.217	1138.68
414.594	1144.71
414.971	1149.74
415.349	1159.63
415.726	1159.67
416.103	1152.84
416.48	1156.15
416.857	1166.81
417.234	1180.03
417.611	1185.39
417.988	1184.78
418.365	1173.85
418.742	1187.15
419.119	1198.67
419.495	1201.34
419.872	1206.58
420.249	1243.49
420.625	1260.56
421.002	1278.13
421.379	1292.01
421.755	1309.21
422.131	1322.02
422.508	1328.99
422.884	1335.07
423.26	1339.8
423.637	1345.23
424.013	1308.47
424.389	1302.82
424.765	1301.1
425.141	1310.44
425.517	1303.64
425.893	1298.06
426.269	1303.2
426.645	1335.11
427.021	1372.75
427.397	1382.39
427.772	1373.58
428.148	1367.61
428.524	1383.19
428.899	1380.59
429.275	1408.53
429.651	1431.36
430.026	1453.81
430.401	1453.51
430.777	1447.04
431.152	1431.5
431.527	1417.49
431.903	1428.57
432.278	1428.62
432.653	1437.47
433.028	1472.17
433.403	1507.03
433.778	1546.75
434.153	1519.28
434.528	1500.78
434.903	1507.08
435.278	1523.4
435.653	1539.46
436.027	1539.74
436.402	1550.97
436.777	1561.44
437.151	1565.91
437.526	1583.51
437.9	1596.44
438.275	1622.25
438.649	1612.07
439.023	1625.66
439.398	1624.91
439.772	1620.45
440.146	1637.56
440.52	1682.8
440.895	1721.11
441.269	1766.18
441.643	1772
442.017	1753.8
442.391	1747.4
442.765	1757.77
443.138	1750.3
443.512	1775.61
443.886	1786.9
444.26	1789.53
444.633	1798.19
445.007	1796.84
445.38	1807
445.754	1813.34
446.127	1819.91
446.501	1813.09
446.874	1811.21
447.248	1806.1
447.621	1823.87
447.994	1823.37
448.367	1836.92
448.741	1844.94
449.114	1827.65
449.487	1843
449.86	1855.85
450.233	1857.99
450.606	1851.49
450.978	1846.05
451.351	1856.5
451.724	1860.5
452.097	1851.47
452.469	1874.49
452.842	1874.93
453.215	1878.03
453.587	1874.7
453.96	1893.45
454.332	1901.86
454.704	1924.17
455.077	1932.46
455.449	1942.1
455.821	1940.48
456.194	1974.6
456.566	1979.01
456.938	2006.27
457.31	2035.5
457.682	2078.12
458.054	2072.53
458.426	2103.05
458.798	2109.12
459.17	2117.54
459.541	2109.26
459.913	2090.25
460.285	2092.85
460.656	2100.55
461.028	2093.3
461.399	2119.87
461.771	2122.01
462.142	2147.45
462.514	2195.9
462.885	2212.76
463.256	2274.67
463.628	2286.4
463.999	2318.15
464.37	2362.38
464.741	2370.1
465.112	2350.68
465.483	2357.88
465.854	2385.11
466.225	2362.08
466.596	2357.76
466.967	2404.06
467.338	2412.42
467.708	2457.4
468.079	2461.79
468.45	2467.59
468.82	2465.84
469.191	2480.66
469.561	2486.17
469.932	2516.09
470.302	2514.19
470.673	2563.49
471.043	2588.8
471.413	2620.97
471.783	2665.34
472.154	2722.81
472.524	2749.95
472.894	2816.67
473.264	2849.63
473.634	2847.65
474.004	2855.24
474.374	2926.49
474.743	2955.53
475.113	3023.55
475.483	3042.76
475.853	3087.82
476.222	3119.32
476.592	3186.02
476.961	3166.59
477.331	3208.95
477.7	3258.78
478.07	3339.74
478.439	3348.65
478.808	3402.94
479.178	3431.12
479.547	3513.67
479.916	3536.11
480.285	3601.35
480.654	3630.89
481.023	3688.49
481.392	3743.66
481.761	3787.34
482.13	3830
482.499	3888.86
482.867	3923.85
483.236	4023.94
483.605	4140.09
483.973	4199.95
484.342	4295.8
484.71	4436.84
485.079	5095.39
485.447	5555.31
485.816	5869.17
486.184	5474.94
486.552	5009.33
486.921	4734.26
487.289	4635.9
487.657	4640.73
488.025	4654.81
488.393	4690.42
488.761	4751.3
489.129	4857.58
489.497	4902.32
489.865	5011.59
490.233	5054.23
490.6	5092.95
490.968	5094.77
491.336	5127.77
491.703	5174.05
492.071	5257.81
492.438	5315.47
492.806	5376.04
493.173	5456.36
493.541	5468.33
493.908	5453.14
494.275	5469.18
494.642	5486.47
495.01	5533.85
495.377	5603.87
495.744	5660.15
496.111	5758.48
496.478	5787.77
496.845	5779.32
497.211	5788.98
497.578	5857.55
497.945	5932.39
498.312	6025.27
498.678	6086.63
499.045	6151.85
499.412	6128
499.778	6148.24
500.145	6191.95
500.511	6247.26
500.878	6312.68
501.244	6380.66
501.61	6384.23
501.976	6384.57
502.343	6445.25
502.709	6525.25
503.075	6517.16
503.441	6529.46
503.807	6547.06
504.173	6556.29
504.539	6611.24
504.905	6670.85
505.27	6750.36
505.636	6764.1
506.002	6831.17
506.367	6814.74
506.733	6814.31
507.099	6826.52
507.464	6877.78
507.829	6901.78
508.195	6970.72
508.56	7005.27
508.926	7020.55
509.291	7026.6
509.656	7088.22
510.021	7133.44
510.386	7185.36
510.751	7231.51
511.116	7291.03
511.481	7309.71
511.846	7357.01
512.211	7355.71
512.576	7361.42
512.941	7366.32
513.305	7421.14
513.67	7485.99
514.035	7495.59
514.399	7560.51
514.764	7561.79
515.128	7590.87
515.493	7627.17
515.857	7659.65
516.221	7666.37
516.585	7718.97
516.95	7793.48
517.314	7832.98
517.678	7844.6
518.042	7884.48
518.406	7965.18
518.77	7943.33
519.134	8003.95
519.498	8062.29
519.862	8072.11
520.225	8048.74
520.589	8128.81
520.953	8170.87
521.316	8214.92
521.68	8220.88
522.043	8265.84
522.407	8295.7
522.77	8348.8
523.134	8448.63
523.497	8461.03
523.86	8534.09
524.223	8563.83
524.587	8607.48
524.95	8633.29
525.313	8694.94
525.676	8725.97
526.039	8783.48
526.402	8791.38
526.765	8865.74
527.127	8905.44
527.49	8929.06
527.853	8982.77
528.215	9022.41
528.578	9155.5
528.941	9149.63
529.303	9222.27
529.666	9279.4
530.028	9353.26
530.39	9382.6
530.753	9404.52
531.115	9460.13
531.477	9508.62
531.839	9579.21
532.201	9619.59
532.564	9722.59
532.926	9771.87
533.287	9905.97
533.649	9945.82
534.011	9974.83
534.373	10054.71
534.735	10143.49
535.097	10186.34
535.458	10239.37
535.82	10264.65
536.181	10301.15
536.543	10341.56
536.904	10367.32
537.266	10524.49
537.627	10604.68
537.988	10628.56
538.35	10626.14
538.711	10681.63
539.072	10753.71
539.433	10762.66
539.794	10885.95
540.155	10933.02
540.516	11001.38
540.877	11053.2
541.238	11124.46
541.599	11210.42
541.959	11268.5
542.32	11348.81
542.681	11364.92
543.041	11449.09
543.402	11489.91
543.762	11522.93
544.123	11517.27
544.483	11590.91
544.844	11674.07
545.204	11726.38
545.564	11697.62
545.924	11755.82
546.284	11835.2
546.644	11909.08
547.004	11999
547.364	12100.42
547.724	12172.91
548.084	12150.47
548.444	12224.79
548.804	12253.06
549.164	12286.48
549.523	12286.46
549.883	12307.25
550.242	12322.67
550.602	12361.96
550.961	12404.22
551.321	12482.87
551.68	12589.97
552.04	12646.16
552.399	12737.31
552.758	12797.76
553.117	12796.1
553.476	12966.64
553.835	13046.37
554.194	13055.9
554.553	13025.88
554.912	13055.74
555.271	13136.1
555.63	13145.69
555.989	13230.62
556.347	13281.01
556.706	13300.33
557.065	13329.5
557.423	13375.58
557.782	13431.75
558.14	13511.29
558.499	13503.31
558.857	13560.29
559.215	13610.31
559.573	13739.27
559.932	13769.22
560.29	13880.46
560.648	13923.1
561.006	13986.76
561.364	13956.8
561.722	13925.5
562.08	13992.56
562.438	13976.48
562.795	14144.2
563.153	14220.92
563.511	14336.44
563.868	14395.83
564.226	14414.43
564.583	14445.1
564.941	14387.03
565.298	14591.79
565.656	14544.14
566.013	14659.15
566.37	14787.33
566.727	14971.42
567.085	15100.58
567.442	15201.39
567.799	15293.42
568.156	15358.28
568.513	15575.53
568.87	15877.03
569.226	16200.4
569.583	16380.3
569.94	16281.57
570.297	16440.33
570.653	16504.32
571.01	16769.14
571.366	16983.25
571.723	16979.85
572.079	16899.36
572.436	16910.55
572.792	17263.54
573.148	17608.08
573.505	17801.42
573.861	17851.24
574.217	17856.37
574.573	17915.22
574.929	17870.94
575.285	17870.34
575.641	17997.86
575.997	18167
576.352	18387.37
576.708	18586.74
577.064	19027.85
577.42	19270.56
577.775	19331.56
578.131	18956.25
578.486	18689.93
578.842	18838.76
579.197	19127.18
579.552	19487.52
579.908	19412.13
580.263	19322.63
580.618	19821.19
580.973	20683.49
581.328	21513.76
581.683	21428.28
582.038	20494.67
582.393	19589.97
582.748	18956.78
583.103	18732.91
583.458	18948.03
583.812	19320.91
584.167	19958.54
584.522	20087.78
584.876	20171.81
585.231	20247.78
585.585	19928.06
585.939	19650.72
586.294	19487.53
586.648	19737.74
587.002	20115.18
587.356	20365.32
587.711	20637.48
588.065	20487.03
588.419	20153.03
588.773	19814.6
589.127	19424.85
589.48	19542.21
589.834	19377.07
590.188	19332.3
590.542	19438.61
590.895	19471.72
591.249	19571.45
591.603	19515.67
591.956	19948.48
592.309	20371.95
592.663	20623.1
593.016	20645.34
593.369	20508.25
593.723	20323.18
594.076	20508.98
594.429	20873.46
594.782	21126.98
595.135	21127.72
595.488	20760.55
595.841	20573.36
596.194	20357.16
596.547	20308.53
596.899	20499.6
597.252	20544.37
597.605	20522.26
597.957	20548.69
598.31	20726.35
598.662	20883.45
599.015	20931.21
599.367	20804.46
599.719	20866.42
600.072	21078.14
600.424	21248.53
600.776	21249.7
601.128	21378.67
601.48	21174.09
601.832	21278.55
602.184	21492.7
602.536	21822.8
602.888	22188.57
603.24	22001.5
603.592	21832.49
603.943	21441.86
604.295	21251.8
604.646	21304.26
604.998	21483.76
605.349	21657.49
605.701	21594.25
606.052	21663.68
606.404	21580.95
606.755	21725.7
607.106	21855.49
607.457	21837.62
607.808	21848.03
608.159	21824.44
608.51	21860.08
608.861	21879.63
609.212	21900.34
609.563	22114.62
609.914	22278.38
610.265	22261.06
610.615	22310.93
610.966	22576.14
611.316	22463.55
611.667	22485.32
612.017	22592.87
612.368	22375.71
612.718	22753.21
613.068	22660.02
613.419	22733.6
613.769	22811.79
614.119	22727.21
614.469	22750.33
614.819	22769.72
615.169	22808.77
615.519	22833.91
615.869	22758.93
616.219	22542.92
616.568	22618.82
616.918	22647.77
617.268	22858.53
617.617	22740
617.967	22762.08
618.316	22659.27
618.666	22582.32
619.015	22667.7
619.364	22884.4
619.714	23180.99
620.063	23151.91
620.412	23014.12
620.761	22978.43
621.11	23098.77
621.459	23061.55
621.808	23191.77
622.157	23366.96
622.506	23491.89
622.855	23483.12
623.203	23328.26
623.552	23261.78
623.901	23366.2
624.249	23300.73
624.598	23409.75
624.946	23354.17
625.295	23400.35
625.643	23477.93
625.991	23651.11
626.34	23449.17
626.688	23587.62
627.036	23830.29
627.384	23849.42
627.732	23866.03
628.08	23916.08
628.428	23818.61
628.776	24038.09
629.124	24002.54
629.471	23958.54
629.819	23935.99
630.167	23893.63
630.514	24006.26
630.862	23823.75
631.209	23892.02
631.557	24020.01
631.904	24153.53
632.251	24229.88
632.599	24131.33
632.946	24176.64
633.293	24220.55
633.64	24171.79
633.987	24355.91
634.334	24278.02
634.681	24252.3
635.028	24488.47
635.375	24529.34
635.722	24567.07
636.068	24639.46
636.415	24632.57
636.762	24619.67
637.108	24729.63
637.455	24742.72
637.801	24911.71
638.147	25025.1
638.494	25051.78
638.84	25237.44
639.186	25130.6
639.532	25147.77
639.878	25208.75
640.225	25235.96
640.571	25229.19
640.916	25171.79
641.262	25238.16
641.608	25153.48
641.954	25140.16
642.3	25175.74
642.645	25255.51
642.991	25454.68
643.337	25467.91
643.682	25455.62
644.028	25426.37
644.373	25472.63
644.718	25465.66
645.064	25417.9
645.409	25469.45
645.754	25541.85
646.099	25580.39
646.444	25556.68
646.789	25575.54
647.134	25470.61
647.479	25580.33
647.824	25849.54
648.169	26070.96
648.513	26088.91
648.858	26011.26
649.203	25989.06
649.547	26026.9
649.892	25981.53
650.236	26198.45
650.581	26273.02
650.925	26352.89
651.269	26365.01
651.613	26529.05
651.958	26569.39
652.302	26562.76
652.646	26409.52
652.99	26214.22
653.334	26371.17
653.678	26160.16
654.022	26200.52
654.365	26153.32
654.709	26370.67
655.053	29304.71
655.396	45924.36
655.74	58648.23
656.083	62473.28
656.427	53064.86
656.77	37791.08
657.114	30785.34
657.457	28118.81
657.8	27081.5
658.143	26794.23
658.486	26735.7
658.83	26761.21
659.173	26680.91
659.516	26551.95
659.858	26653.76
660.201	26597.99
660.544	26517.11
660.887	26617.35
661.229	26757.3
661.572	26674.9
661.915	26851.47
662.257	26879.61
662.6	27103.22
662.942	26965.17
663.284	26929.94
663.627	27021.11
663.969	26984.57
664.311	26982.55
664.653	26948.87
664.995	27015.6
665.337	27047.85
665.679	26997.15
666.021	26998.51
666.363	26736.76
666.705	26744.7
667.046	26849.25
667.388	26555.23
667.73	26594.6
668.071	26740.99
668.413	26922.27
668.754	27069.42
669.096	26938.57
669.437	27141.22
669.778	27047.14
670.119	27000.27
670.461	26970.18
670.802	27069.75
671.143	27117.19
671.484	27260.17
671.825	27415.16
672.165	27555.11
672.506	27547.78
672.847	27480.27
673.188	27434.76
673.528	27325.56
673.869	27107.47
674.21	27169.34
674.55	27159.62
674.89	27080.08
675.231	27162.92
675.571	27237.06
675.911	27122.47
676.252	27095.86
676.592	27201.15
676.932	27181.44
677.272	27083.62
677.612	27116.32
677.952	27196.47
678.292	27134.39
678.631	26896.9
678.971	26882.13
679.311	27229.18
679.651	27215.52
679.99	27228.83
680.33	27139.17
680.669	26998.29
681.009	27071.73
681.348	27165.82
681.687	27315.27
682.026	27288.94
682.366	26991.5
682.705	27109.05
683.044	27170.18
683.383	27158.26
683.722	27301.24
684.061	27295.59
684.4	27620.16
684.738	27772.61
685.077	27827.98
685.416	27482.6
685.754	27369.36
686.093	27224.73
686.431	27286.68
686.77	27065.04
687.108	27087.72
687.447	27092.2
687.785	27219.87
688.123	27197.15
688.461	27117.75
688.799	27057.2
689.137	27247.81
689.475	27295.48
689.813	27235.52
690.151	27440.8
690.489	27460.52
690.827	27477.52
691.164	27783.08
691.502	27702.04
691.84	27395.56
692.177	27408.26
692.515	27527.87
692.852	27338.22
693.189	27464.81
693.527	27432.13
693.864	27237.82
694.201	27170.22
694.538	27183.99
694.875	27192.39
695.212	27210.87
695.549	27225.63
695.886	27095.01
696.223	27076.65
696.56	27170.8
696.897	27220.7
697.233	27468.54
697.57	27423.76
697.906	27414.05
698.243	27279.84
698.579	27160.83
698.916	27276.17
699.252	27187.97
699.588	27208.58
699.924	27367.67
700.261	27410.17
700.597	27378.52
700.933	27173.24
701.269	27012.77
701.605	27030.5
701.941	26875.02
702.276	26996.69
702.612	27015.49
702.948	27158.5
703.283	27056.9
703.619	26907.21
703.954	27037.91
704.29	26889.8
704.625	27059.35
704.961	26992.2
705.296	27079.84
705.631	27023.27
705.966	26873.41
706.301	26905.09
706.637	27157.79
706.972	27371.48
707.306	27145.6
707.641	27011.59
707.976	27014.58
708.311	26967.81
708.646	26941.67
708.98	26953.03
709.315	27090.09
709.649	27125.14
709.984	27198.41
710.318	27039.66
710.653	27044.99
710.987	27006.32
711.321	26899.01
711.655	26596.77
711.989	26525.51
712.324	26669.15
712.658	26674.56
712.992	26771.14
713.325	26742.95
713.659	26855.87
713.993	26735.06
714.327	26754.53
714.66	26883.04
714.994	26934.51
715.328	27039.04
715.661	27077.84
715.994	26937.02
716.328	26669.41
716.661	26699.85
716.994	26698.1
717.328	26615.54
717.661	26778.26
717.994	26579.09
718.327	26510.89
718.66	26386.62
718.993	26442.77
719.325	26462.53
719.658	26582.4
719.991	26547.48
720.324	26532.22
720.656	26268.77
720.989	26099.5
721.321	26172.9
721.654	26245.69
721.986	26297.81
722.318	26336.86
722.651	26499.45
722.983	26221.83
723.315	26321.85
723.647	26265.64
723.979	26202.89
724.311	26067.54
724.643	25962.55
724.975	26033.99
725.307	26032.38
725.638	26149.94
725.97	26054.38
726.302	26084.31
726.633	26016.72
726.965	26210.66
727.296	26048.35
727.628	25909.87
727.959	25871.71
728.29	25994.28
728.621	25870.66
728.952	25942.84
729.284	25855.36
729.615	25895.37
729.945	25711.25
730.276	25696.22
730.607	25914
730.938	25802.84
731.269	25786.01
731.599	25687.46
731.93	25634.69
732.261	25344.69
732.591	25336.89
732.922	25305.5
733.252	25236.68
733.582	25195.63
733.912	25239.95
734.243	25279.78
734.573	25267.8
734.903	25389.8
735.233	25151.29
735.563	25213.91
735.893	25065.71
736.223	24915.43
736.552	24895.64
736.882	24940.01
737.212	24911.85
737.541	24825.15
737.871	24613.37
738.2	24465.97
738.53	24409.75
738.859	24412.14
739.188	24271.15
739.518	24273.02
739.847	24286.65
740.176	24092.88
740.505	24220.37
740.834	24048.41
741.163	23713.81
741.492	23592.15
741.821	23656.22
742.15	23675.3
742.478	23576.35
742.807	23219.99
743.136	23187.68
743.464	23251.87
743.793	23276.01
744.121	23505.48
744.449	23422.79
744.778	23426.26
745.106	23623.74
745.434	23575.31
745.762	23444.08
746.09	23363.04
746.418	23210.78
746.746	23217.12
747.074	23055.25
747.402	23078.92
747.73	22903.75
748.057	22823.99
748.385	22637.52
748.712	22635.05
749.04	22605.13
749.367	22569
749.695	22369.25
750.022	22652.08
750.349	22692.02
750.677	22657.14
751.004	22436.14
751.331	22270.91
751.658	22320.94
751.985	22161.05
752.312	21951.38
752.639	21898.65
752.966	21954.47
753.292	21955.36
753.619	22229.53
753.946	22257.91
754.272	22139.1
754.599	21858.62
754.925	21710.06
755.251	21693.31
755.578	21777.19
755.904	21787.05
756.23	21847.22
756.556	21909.44
756.882	21829.39
757.208	21729.19
757.534	21626.92
757.86	21521.15
758.186	21480.96
758.512	21230.75
758.838	21153.23
759.163	21193.88
759.489	21254.23
759.814	21066.6
760.14	21045.52
760.465	21014.65
760.791	20775.92
761.116	20762.46
761.441	20583.21
761.766	20507.13
762.092	20350.12
762.417	20313.02
762.742	20523.38
763.066	20705.53
763.391	20786.13
763.716	20716.47
764.041	20555.14
764.366	20323.46
764.69	20270.72
765.015	20236.18
765.339	20058
765.664	20039.23
765.988	19893.25
766.312	19837.21
766.637	19769.13
766.961	19610.45
767.285	19399.91
767.609	19338.99
767.933	19286.7
768.257	19615
768.581	19759.89
768.905	19710.11
769.229	19743.89
769.552	19667.83
769.876	19816.89
770.2	19643.09
770.523	19424.04
770.847	19227.43
771.17	19162.03
771.493	19215.71
771.817	19211.8
772.14	19038.8
772.463	18919.08
772.786	18919.66
773.109	18694.1
773.432	18633.71
773.755	18581.51
774.078	18495.7
774.401	18366.48
774.724	18222.42
775.046	18287.83
775.369	18327.18
775.692	18367.58
776.014	18236.65
776.336	18054.82
776.659	17909.3
776.981	17814.12
777.303	17751.26
777.626	17745.4
777.948	17554.92
778.27	17566.69
778.592	17604.04
778.914	17779.79
779.236	17835.34
779.557	17885.32
779.879	17926.92
780.201	17751.65
780.523	17701.98
780.844	17680.25
781.166	17850.55
781.487	17814.37
781.809	17661.24
782.13	17613.21
782.451	17452.11
782.772	17525.64
783.094	17436.48
783.415	17565.28
783.736	17427.29
784.057	17432.36
784.378	17426.84
784.698	17470.01
785.019	17719.74
785.34	17562.88
785.661	17712.63
785.981	17778.09
786.302	17686.57
786.622	17834.01
786.943	18049.18
787.263	17906.08
787.583	18006.08
787.903	18026.05
788.224	17959.29
788.544	18062.48
788.864	18061.42
789.184	18037.99
789.504	17771.2
789.824	17671.32
790.143	17734.35
790.463	17921.29
790.783	17957.27
791.102	17936.85
791.422	17922.05
791.741	17743
792.061	17734.38
792.38	17814.1
792.699	17915.42
793.019	17988.9
793.338	17784.94
793.657	17556.22
793.976	17740.28
794.295	17773.96
794.614	17810.23
794.933	17700.43
795.252	17617.84
795.57	17475.55
795.889	17351.73
796.208	17328.92
796.526	17198.26
796.845	17211.51
797.163	17148.71
797.482	17177.84
797.8	17095.67
798.118	16909.28
798.436	17069.78
798.754	17144.54
799.073	17078.48
799.391	17021.41
799.708	16835.46
800.026	16744.53
800.344	16779.57
800.662	16881.01
800.98	16956.11
801.297	16811.76
801.615	16635
801.932	16631.36
802.25	16605.99
802.567	16613.51
802.884	16685.56
803.202	16647.89
803.519	16473.95
803.836	16364.24
804.153	16267.58
804.47	16353.74
804.787	16324.66
805.104	16310.19
805.421	16293.46
805.737	16222.57
806.054	16136.29
806.371	16173.57
806.687	16299.28
807.004	16200.37
807.32	16046.11
807.637	15796.52
807.953	15693.01
808.269	15617.12
808.585	15765.29
808.902	15663.9
809.218	15575.37
809.534	15389.63
809.85	15275.76
810.165	15267.14
810.481	15424.88
810.797	15486.99
811.113	15368.42
811.428	15294.48
811.744	15093.84
812.059	14942.34
812.375	14908.12
812.69	14947.09
813.006	14896.76
813.321	14857.8
813.636	14844.86
813.951	14847.6
814.266	14800.9
814.581	14776.6
814.896	14872.24
815.211	14908.04
815.526	14836.35
815.841	14618.11
816.155	14546.18
816.47	14535.15
816.784	14624.72
817.099	14627.09
817.413	14595.07
817.728	14510.31
818.042	14269.65
818.356	14098.67
818.67	14019.68
818.985	14049.34
819.299	13962.87
819.613	13919.46
819.926	13744.36
820.24	13799.78
820.554	13895.71
820.868	13948.5
821.182	13796.79
821.495	13793.79
821.809	13610.19
822.122	13449.9
822.436	13405.76
822.749	13313.33
823.062	13279.07
823.376	13377.64
823.689	13321.17
824.002	13251.48
824.315	13102.13
824.628	13057.01
824.941	13084.5
825.254	13096.6
825.566	13109.29
825.879	13192.3
826.192	13083.44
826.504	12854.7
826.817	12783.13
827.129	12930.8
827.442	12899.89
827.754	12984.61
828.066	12984.39
828.379	12747.14
828.691	12698.96
829.003	12532.26
829.315	12463.1
829.627	12483.11
829.939	12518.88
830.251	12568.41
830.562	12406.4
830.874	12317.05
831.186	12173.03
831.497	12185.87
831.809	12168.55
832.12	12216.22
832.432	12168.47
832.743	12157.93
833.054	12033.03
833.365	11910.94
833.676	11837.02
833.988	11909.74
834.299	12026.9
834.61	12051
834.92	11973.99
835.231	11858.03
835.542	11634.04
835.853	11492.53
836.163	11429.34
836.474	11463.41
836.784	11536.49
837.095	11591.58
837.405	11505.31
837.715	11385.39
838.026	11270.23
838.336	11182.65
838.646	11243.09
838.956	11278.23
839.266	11247.87
839.576	11136.63
839.886	10991.22
840.195	10901.68
840.505	10874.18
840.815	10918.51
841.124	10957.28
841.434	10954.59
841.743	10906.33
842.053	10903.75
842.362	10743.25
842.671	10648.13
842.981	10734.7
843.29	10750.59
843.599	10809.27
843.908	10712.35
844.217	10524.7
844.526	10403.89
844.835	10310.52
845.143	10277.08
845.452	10261.04
845.761	10400.08
846.069	10319.76
846.378	10304.76
846.686	10205.91
846.995	10055.08
847.303	9986.88
847.611	10059.69
847.919	10070.02
848.227	10024.54
848.535	9903.3
848.843	9791.04
849.151	9618.22
849.459	9645.78
849.767	9671.19
850.075	9740.59
850.382	9727.8
850.69	9675.24
850.998	9600.09
851.305	9414.11
851.612	9281.53
851.92	9235.7
852.227	9276.27
852.534	9305.01
852.841	9372.72
853.148	9393.16
853.455	9426.93
853.762	9300.92
854.069	9220.14
854.376	9133.41
854.683	9145.12
854.99	9072.19
855.296	8994.52
855.603	8895.85
855.909	8841.76
856.216	8743.39
856.522	8686.34
856.828	8707.82
857.135	8775.13
857.441	8782.96
857.747	8745.38
858.053	8709.97
858.359	8551.15
858.665	8552.52
858.971	8508.08
859.276	8491.6
859.582	8427.88
859.888	8391.5
860.193	8317.17
860.499	8215.57
860.804	8137.84
861.11	8055.19
861.415	8103.77
861.72	8179.44
862.026	8152.33
862.331	8236.68
862.636	8193.21
862.941	8105.57
863.246	7951.9
863.551	7844.2
863.855	7786.14
864.16	7790.02
864.465	7827.39
864.769	7838.52
865.074	7782.71
865.378	7677.05
865.683	7575.06
865.987	7568.81
866.291	7546.27
866.596	7621.84
866.9	7629.55
867.204	7620.98
867.508	7549.96
867.812	7450.68
868.116	7382.69
868.42	7270.64
868.723	7208.58
869.027	7263.41
869.331	7281.96
869.634	7267.34
869.938	7207.21
870.241	7170.45
870.544	7093.92
870.848	7025.09
871.151	7034.3
871.454	7023.77
871.757	7039.58
872.06	7057.31
872.363	7021.09
872.666	7000.16
872.969	6933.97
873.272	6884.69
873.574	6873.83
873.877	6867.56
874.18	6851.47
874.482	6833.09
874.785	6791.22
875.087	6698.71
875.389	6629.85
875.692	6569.28
875.994	6529.62
876.296	6539.1
876.598	6553.95
876.9	6556.28
877.202	6496.17
877.504	6442.1
877.805	6405.76
878.107	6371.99
878.409	6290.5
878.71	6281.1
879.012	6281.75
879.313	6278.26
879.615	6302.42
879.916	6208.5
880.217	6121.08
880.518	6027.2
880.82	5968.28
881.121	5940.42
881.422	5961.89
881.723	5948.16
882.023	5904.43
882.324	5853.82
882.625	5766.18
882.926	5712.66
883.226	5727.16
883.527	5652.41
883.827	5627.64
884.128	5634.39
884.428	5670.4
884.728	5609.89
885.028	5602.02
885.328	5546.32
885.629	5449.55
885.929	5395.72
886.228	5364.87
886.528	5354.25
886.828	5363.07
887.128	5364.59
887.427	5324.35
887.727	5261.2
888.027	5166.76
888.326	5111.53
888.625	5071.47
888.925	5020.27
889.224	5066.45
889.523	5095.96
889.822	5124.08
890.121	5100.54
890.42	5030.08
890.719	4979.69
891.018	4905.48
891.317	4940.05
891.616	4967.07
891.914	4982.83
892.213	4996.38
892.512	4983.63
892.81	4947.7
893.108	4915.95
893.407	4894.89
893.705	4916.21
894.003	4908.52
894.301	4922.4
894.599	4951.58
894.897	4944.78
895.195	4889.04
895.493	4832.57
895.791	4812.21
896.089	4769.63
896.386	4724.8
896.684	4737.74
896.981	4719.55
897.279	4714.81
897.576	4735.2
897.874	4696.21
898.171	4695.54
898.468	4685.36
898.765	4647.96
899.062	4666.92
899.359	4653.31
899.656	4685.14
899.953	4706.08
900.25	4739.52
900.547	4734.93
900.843	4703.78
901.14	4685.18
901.436	4649.59
901.733	4627.58
902.029	4594.94
902.325	4611.96
902.622	4599.9
902.918	4612.65
903.214	4598.22
903.51	4549.49
903.806	4545.82
904.102	4504.86
904.398	4471.27
904.694	4458.8
904.989	4500.22
905.285	4483.47
905.581	4471.02
905.876	4465.43
906.171	4430.24
906.467	4384.89
906.762	4338.75
907.057	4312.8
907.353	4321.45
907.648	4311.23
907.943	4322.55
908.238	4338.81
908.533	4329.74
908.827	4301.18
909.122	4259.7
909.417	4231
909.711	4212.97
910.006	4174.44
910.301	4158.91
910.595	4203.51
910.889	4265.11
911.184	4234.13
911.478	4243
911.772	4215.21
912.066	4140.63
912.36	4076.11
912.654	4044.29
912.948	4042.23
913.242	4092.39
913.536	4073.25
913.829	4063.6
914.123	4056.56
914.416	4016.91
914.71	4002.61
915.003	3983.83
915.297	3930.82
915.59	3899.56
915.883	3888.22
916.176	3902.68
916.469	3922.61
916.762	3928.92
917.055	3917.37
917.348	3879.51
917.641	3840.59
917.934	3775.96
918.226	3721.1
918.519	3681.63
918.811	3669.25
919.104	3657.49
919.396	3626.04
919.689	3589.8
919.981	3548.02
920.273	3492.17
920.565	3465.51
920.857	3414.43
921.149	3391.73
921.441	3369.53
921.733	3368.47
922.025	3364.58
922.316	3372.92
922.608	3382.71
922.9	3353.5
923.191	3307.11
923.483	3282.62
923.774	3237.16
924.065	3236.12
924.357	3212.11
924.648	3176.87
924.939	3157.64
925.23	3145.81
925.521	3119.46
925.812	3092.26
926.102	3048.81
926.393	3009.22
926.684	2998.99
926.975	2968.31
927.265	2966.94
927.556	2971.43
927.846	2970.25
928.136	2953.15
928.427	2923.27
928.717	2872.35
929.007	2833.96
929.297	2790.79
929.587	2764.3
929.877	2757.66
930.167	2756.56
930.457	2748.04
930.746	2723.11
931.036	2718.92
931.325	2695.65
931.615	2656.04
931.904	2624.5
932.194	2563.47
932.483	2530.63
932.772	2522.82
933.062	2515.1
933.351	2503.68
933.64	2491.67
933.929	2495.79
934.218	2469.77
934.506	2437.29
934.795	2403.02
935.084	2369.86
935.372	2342.7
935.661	2329.06
935.949	2328.9
936.238	2334.92
936.526	2320.79
936.815	2314.26
937.103	2304.8
937.391	2290.86
937.679	2271.55
937.967	2237.51
938.255	2206.96
938.543	2189.1
938.831	2180.02
939.118	2186.93
939.406	2182.43
939.693	2168
939.981	2145.54
940.268	2116.85
940.556	2078.71
940.843	2049.11
941.13	2022.49
941.418	1995.64
941.705	1979.41
941.992	1975.81
942.279	1970.24
942.566	1956.16
942.852	1939.3
943.139	1923.71
943.426	1895.2
943.712	1868.45
943.999	1841.39
944.285	1817.7
944.572	1798.1
944.858	1790.12
945.144	1790.01
945.431	1775.36
945.717	1769.93
946.003	1756.85
946.289	1737.42
946.575	1724.71
946.861	1709.96
947.146	1692.16
947.432	1669.71
947.718	1645.92
948.003	1628.09
948.289	1621.58
948.574	1610.15
948.86	1596.55
949.145	1595.5
949.43	1572.12
949.715	1546.83
950	1520.2
950.285	1502.03
950.57	1494.26
950.855	1486.21
951.14	1482.11
951.425	1482.19
951.709	1485.71
951.994	1482.44
952.278	1478.84
952.563	1461.07
952.847	1444.23
953.132	1427.94
953.416	1421.98
953.7	1401.22
953.984	1393.16
954.268	1382.04
954.552	1376.88
954.836	1370.76
955.12	1361.29
955.404	1351.18
955.687	1332.07
955.971	1312.32
956.254	1288.7
956.538	1267.34
956.821	1253.89
957.105	1237.95
957.388	1236.36
957.671	1227.47
957.954	1226
958.237	1225
958.52	1213.46
958.803	1204.5
959.086	1191.45
959.369	1179.23
959.652	1163.76
959.934	1157.13
960.217	1152.03
960.499	1145.86
960.782	1144.32
961.064	1139.67
961.346	1132.56
961.629	1119.87
961.911	1102.2
962.193	1088.49
962.475	1071.94
962.757	1056.63
963.039	1043.49
963.32	1033.77
963.602	1023.83
963.884	1019.83
964.165	1019.34
964.447	1018.76
964.728	1011.45
965.01	1006.9
965.291	998.02
965.572	986.52
965.853	975.74
966.134	958.12
966.415	948.24
966.696	942.16
966.977	934.44
967.258	934.57
967.539	929.1
967.819	924.78
968.1	917.48
968.38	908.27
968.661	896.86
968.941	882.41
969.222	871.29
969.502	864.02
969.782	856.61
970.062	849.38
970.342	842.36
970.622	837.38
970.902	834.67
971.182	825.78
971.462	820.81
971.741	809.7
972.021	799.26
972.3	789.87
972.58	781.69
972.859	774.66
973.138	769.15
973.418	767.86
973.697	762.36
973.976	757.74
974.255	754.33
974.534	751.64
974.813	745.3
975.092	740.46
975.37	732.51
975.649	722.17
975.928	712.12
976.206	702.83
976.485	698.01
976.763	693.47
977.041	691.43
977.32	687.98
977.598	681.56
977.876	678.89
978.154	673.25
978.432	668.21
978.71	657.93
978.988	652.17
979.265	649.25
979.543	646.65
979.821	635.09
980.098	635.62
980.376	630.73
980.653	625.69
980.93	623.73
981.208	618.49
981.485	612.11
981.762	606.13
982.039	604.43
982.316	596.38
982.593	592.09
982.87	588.66
983.146	586.85
983.423	579.62
983.7	577.53
983.976	574.67
984.253	572.06
984.529	571.64
984.805	565.83
985.082	564.96
985.358	562.86
985.634	556.69
985.91	553.89
986.186	549.86
986.462	543.15
986.738	538.25
987.013	536.41
987.289	532.28
987.565	532.24
987.84	526.31
988.116	521.14
988.391	520.76
988.666	514.32
988.942	510.96
989.217	506.96
989.492	506.87
989.767	506.53
990.042	504.56
990.317	503.96
990.592	500.17
990.866	499.92
991.141	496.31
991.416	493.49
991.69	489.47
991.964	487.81
992.239	483.25
992.513	480.33
992.787	477.36
993.062	475.59
993.336	470.97
993.61	470.61
993.884	468.57
994.158	469.26
994.431	465.81
994.705	463.6
994.979	461.72
995.252	458.71
995.526	455.56
995.799	452.35
996.073	450.01
996.346	449.99
996.619	447.55
996.892	447.19
997.165	446.14
997.438	447.34
997.711	444.04
997.984	441.25
998.257	439.89
998.53	438.06
998.802	436.05
999.075	433.82
999.347	430.85
999.62	430.93
999.892	427.81
1000.165	428.43
1000.437	424.97
1000.709	426.04
1000.981	423.27
1001.253	421.35
1001.525	420.98
1001.797	419.96
1002.068	417.83
1002.34	416.35
1002.612	416.14
1002.883	413.17
1003.155	410.92
1003.426	410.25
1003.698	409.55
1003.969	410.07
1004.24	409.71
1004.511	406.87
1004.782	408.24
1005.053	407.17
1005.324	404.2
1005.595	401.59
1005.866	401.65
1006.136	399.8
1006.407	398.27
1006.678	398.57
1006.948	397.63
1007.218	397
1007.489	394.57
1007.759	394
1008.029	393.69
1008.299	390.78
1008.569	392.03
1008.839	390.45
1009.109	390.89
1009.379	390.44
1009.649	388.88
1009.918	388.34
1010.188	385.19
1010.458	385.95
1010.727	384.48
1010.996	385.86
1011.266	384.63
1011.535	384.28
1011.804	383.7
1012.073	381.05
1012.342	382.7
1012.611	380.13
1012.88	379.27
1013.149	380.82
1013.417	379.11
1013.686	378.91
1013.955	377.05
1014.223	377.83
1014.492	377.74
1014.76	377.77
1015.028	378.51
1015.296	375.5
1015.565	376.58
1015.833	374.6
1016.101	376.55
1016.368	372.71
1016.636	374.2
1016.904	374.37
1017.172	373.3
1017.439	372.47
1017.707	372.62
1017.974	371.65
1018.242	371.85
1018.509	372.2
1018.776	373.66
1019.044	370.96
1019.311	371.3
1019.578	371.27
1019.845	369.88
1020.112	368.97
1020.378	368.97
1020.645	368.97
