Data from 190614_Kr_34K_dark_FLMS138901_16-43-55-606.txt Node
Date: Fri Jun 14 16:43:55 EDT 2019
User: pSAM
Spectrometer: FLMS13890
Trigger mode: 0
Integration Time (sec): 5.000000E-3
Scans to average: 1000
Electric dark correction enabled: true
Nonlinearity correction enabled: false
Boxcar width: 0
XAxis mode: Wavelengths
Number of Pixels in Spectrum: 2048
>>>>>Begin Spectral Data<<<<<
342.097	-59.21
342.483	-59.21
342.868	-59.21
343.254	-99.9
343.639	-105.01
344.025	-104.3
344.41	-97.86
344.796	-90.61
345.181	-80.42
345.567	-68.62
345.952	-50.61
346.337	-36.11
346.722	-18.33
347.107	1.81
347.493	18.27
347.878	36.77
348.263	58.76
348.648	80.07
349.033	97.57
349.418	118.06
349.802	135.54
350.187	154.04
350.572	170.51
350.957	188.99
351.342	205.2
351.726	219.7
352.111	235.42
352.495	246.81
352.88	259.77
353.264	273.52
353.649	282.22
354.033	295.08
354.418	301.06
354.802	307.69
355.186	314.82
355.57	319.68
355.955	325.55
356.339	329.85
356.723	330.88
357.107	335.45
357.491	364.23
357.875	342.03
358.259	341.07
358.643	342.57
359.026	342.22
359.41	342.77
359.794	340.92
360.178	341.61
360.561	339.58
360.945	338.61
361.329	336.04
361.712	335.41
362.096	335.41
362.479	332.64
362.862	330.88
363.246	328.73
363.629	328.51
364.012	329.12
364.396	324.31
364.779	323.24
365.162	321.66
365.545	322.93
365.928	320.78
366.311	319.45
366.694	317.52
367.077	316.5
367.46	317.82
367.843	315.11
368.226	314.32
368.608	312.59
368.991	315.21
369.374	312.73
369.756	313.01
370.139	313.36
370.521	311.96
370.904	312.84
371.286	312.68
371.669	313.72
372.051	313.41
372.433	312.68
372.816	314.61
373.198	313.7
373.58	314.18
373.962	313.3
374.344	315.55
374.726	315.92
375.108	316.56
375.49	318.66
375.872	317.82
376.254	317.37
376.636	318.06
377.018	320.02
377.399	319.96
377.781	319.21
378.163	320.28
378.544	320.82
378.926	321.25
379.307	321.81
379.689	322.58
380.07	323.33
380.452	322.82
380.833	322.78
381.214	324.08
381.596	323.32
381.977	326.47
382.358	325.81
382.739	325.1
383.12	325.51
383.501	325.6
383.882	328.46
384.263	328.96
384.644	328.13
385.025	330.06
385.406	329.32
385.787	326.97
386.167	329.51
386.548	328.54
386.929	329.33
387.309	328.55
387.69	331.58
388.07	330.82
388.451	329.91
388.831	331.2
389.211	332.98
389.592	334.11
389.972	331.56
390.352	332.14
390.733	331.8
391.113	332.42
391.493	333.59
391.873	333.77
392.253	333.88
392.633	334.53
393.013	336.83
393.393	335.09
393.772	335.35
394.152	336.07
394.532	337.88
394.912	336.68
395.291	336.85
395.671	337.39
396.05	337.28
396.43	339.47
396.809	338.97
397.189	338.2
397.568	339.33
397.948	338.97
398.327	342.35
398.706	339.1
399.085	337.98
399.465	339.36
399.844	340.1
400.223	339.32
400.602	340.73
400.981	340.91
401.36	341.04
401.739	339.8
402.117	341.55
402.496	342.05
402.875	340.25
403.254	342.7
403.632	341.94
404.011	343.52
404.39	343.66
404.768	343.4
405.147	345.83
405.525	344.12
405.903	343.98
406.282	347.09
406.66	345.55
407.038	344.93
407.417	346.59
407.795	347.32
408.173	346.41
408.551	346.21
408.929	348.33
409.307	347.23
409.685	347.15
410.063	347.53
410.441	347.36
410.818	349.96
411.196	348.79
411.574	349.73
411.952	347.89
412.329	348.37
412.707	349.45
413.084	348.16
413.462	350.84
413.839	348.88
414.217	351.57
414.594	350.57
414.971	349.66
415.349	351.43
415.726	351.15
416.103	351.62
416.48	352.82
416.857	352.49
417.234	351.62
417.611	353.47
417.988	354.08
418.365	352.48
418.742	351.15
419.119	353.52
419.495	354.8
419.872	354.18
420.249	359.94
420.625	356.68
421.002	355.39
421.379	355.12
421.755	354.76
422.131	354.81
422.508	355.29
422.884	357.9
423.26	353.54
423.637	355.38
424.013	357.69
424.389	357.15
424.765	355.89
425.141	355.69
425.517	357
425.893	357.22
426.269	357.73
426.645	358.35
427.021	355.81
427.397	357.83
427.772	356.58
428.148	357.22
428.524	357.87
428.899	358.77
429.275	358.67
429.651	359.04
430.026	359.58
430.401	359.28
430.777	360.7
431.152	360.51
431.527	358.64
431.903	359.09
432.278	359.79
432.653	360.21
433.028	361.2
433.403	360.3
433.778	360.89
434.153	361.24
434.528	362.94
434.903	365.12
435.278	368.41
435.653	371.17
436.027	371.34
436.402	367.41
436.777	364.45
437.151	364.99
437.526	363.26
437.9	362.24
438.275	363.28
438.649	361.44
439.023	360.56
439.398	360.74
439.772	362.4
440.146	362.71
440.52	362.85
440.895	363.58
441.269	364.41
441.643	363.19
442.017	363.93
442.391	365.71
442.765	364.89
443.138	367.17
443.512	364.83
443.886	364.24
444.26	365.4
444.633	366.27
445.007	365.11
445.38	365.18
445.754	365.82
446.127	364.2
446.501	366.69
446.874	365.84
447.248	365.61
447.621	366.22
447.994	365.41
448.367	368.02
448.741	364.76
449.114	367
449.487	367.34
449.86	367.81
450.233	367.27
450.606	368.54
450.978	366.56
451.351	369.4
451.724	367.68
452.097	366.18
452.469	367.46
452.842	367.57
453.215	367.52
453.587	368.79
453.96	366.92
454.332	368.14
454.704	367.72
455.077	366.86
455.449	369.18
455.821	367.66
456.194	368.78
456.566	365.63
456.938	368.82
457.31	366.96
457.682	368.1
458.054	368.74
458.426	370.15
458.798	368.52
459.17	370.05
459.541	369.65
459.913	367.2
460.285	367.81
460.656	368.39
461.028	368.38
461.399	368.84
461.771	368.41
462.142	369.06
462.514	368.52
462.885	367.75
463.256	369.11
463.628	370.11
463.999	370.6
464.37	370.62
464.741	367.68
465.112	369.08
465.483	370.56
465.854	368.96
466.225	369.35
466.596	368.56
466.967	370.5
467.338	371.14
467.708	369.92
468.079	369.18
468.45	369.48
468.82	370.75
469.191	370.41
469.561	370.66
469.932	369.4
470.302	370.41
470.673	369.37
471.043	371.48
471.413	371.17
471.783	369.45
472.154	369.39
472.524	371.89
472.894	368.17
473.264	368.71
473.634	370.14
474.004	368.53
474.374	370.73
474.743	370.87
475.113	369.62
475.483	371.63
475.853	369.53
476.222	370.39
476.592	371.24
476.961	369.63
477.331	371.18
477.7	371.67
478.07	371.37
478.439	370.43
478.808	371.39
479.178	370.97
479.547	370.49
479.916	371.93
480.285	370.47
480.654	372.95
481.023	370.07
481.392	373.71
481.761	372.41
482.13	371.03
482.499	372.4
482.867	372.19
483.236	372.62
483.605	372.78
483.973	374.53
484.342	374.79
484.71	373.69
485.079	373.59
485.447	374.98
485.816	375.38
486.184	375.92
486.552	375.11
486.921	376.61
487.289	375.34
487.657	374.91
488.025	376.56
488.393	376.01
488.761	375.43
489.129	375.54
489.497	375.11
489.865	375.08
490.233	376.04
490.6	376.43
490.968	376.06
491.336	375.88
491.703	376.1
492.071	374.52
492.438	376.66
492.806	375.75
493.173	374.36
493.541	374.09
493.908	374.08
494.275	375.03
494.642	375.66
495.01	373.06
495.377	371.81
495.744	372.71
496.111	373.87
496.478	373.79
496.845	375.53
497.211	373.6
497.578	373.45
497.945	373.42
498.312	372.52
498.678	374.05
499.045	373.73
499.412	373.54
499.778	370.8
500.145	372.74
500.511	372.45
500.878	372.42
501.244	373.58
501.61	372.74
501.976	372.55
502.343	371.27
502.709	371.8
503.075	371.03
503.441	370.06
503.807	368.63
504.173	371.66
504.539	369.99
504.905	373.05
505.27	371.9
505.636	371.62
506.002	371.51
506.367	371.12
506.733	373.52
507.099	370.87
507.464	369.29
507.829	370.87
508.195	372.35
508.56	371.68
508.926	369.82
509.291	371.17
509.656	370.38
510.021	370.64
510.386	369.28
510.751	370.57
511.116	371.54
511.481	372.62
511.846	372.09
512.211	369.22
512.576	371.77
512.941	369.35
513.305	371.14
513.67	370.45
514.035	371.12
514.399	372.3
514.764	370.57
515.128	370.82
515.493	369.96
515.857	372.16
516.221	368.98
516.585	368.66
516.95	370.38
517.314	370.37
517.678	369.79
518.042	370
518.406	369.63
518.77	370.82
519.134	370.62
519.498	370.56
519.862	370.68
520.225	370.42
520.589	371.62
520.953	371.08
521.316	369.59
521.68	369.54
522.043	369.65
522.407	370.32
522.77	371.09
523.134	372.41
523.497	370.92
523.86	368.72
524.223	371.45
524.587	370.97
524.95	368.32
525.313	369.48
525.676	368.98
526.039	369.83
526.402	371.56
526.765	372.42
527.127	368.99
527.49	368.66
527.853	369.84
528.215	371.34
528.578	369.76
528.941	369.11
529.303	369.85
529.666	371.38
530.028	370.98
530.39	369.72
530.753	369.32
531.115	369.38
531.477	370.44
531.839	368.87
532.201	370.51
532.564	371.72
532.926	369.54
533.287	370.78
533.649	369.61
534.011	369.98
534.373	371.5
534.735	371
535.097	371.75
535.458	370.26
535.82	369.85
536.181	371.34
536.543	370.98
536.904	370.02
537.266	372.84
537.627	371.99
537.988	372.8
538.35	375.28
538.711	373.29
539.072	375.01
539.433	375.73
539.794	378.46
540.155	378.52
540.516	381.34
540.877	384.88
541.238	390.09
541.599	396.48
541.959	401.32
542.32	408.66
542.681	410.15
543.041	410.73
543.402	415.35
543.762	413.16
544.123	410.81
544.483	409.59
544.844	406.13
545.204	410
545.564	416.7
545.924	416.29
546.284	412.81
546.644	399.33
547.004	392.35
547.364	385.61
547.724	381.77
548.084	379.75
548.444	379.99
548.804	380.67
549.164	381.78
549.523	380.24
549.883	379.6
550.242	378.16
550.602	376.72
550.961	375.38
551.321	374.92
551.68	375.75
552.04	376.37
552.399	374.99
552.758	375.84
553.117	374.75
553.476	373.81
553.835	373.33
554.194	371.1
554.553	369.12
554.912	370.57
555.271	367.99
555.63	367.81
555.989	368.97
556.347	368.93
556.706	368.84
557.065	366.8
557.423	367.56
557.782	368.29
558.14	368.41
558.499	368.5
558.857	367.6
559.215	367.72
559.573	367.22
559.932	368.74
560.29	368.84
560.648	366.7
561.006	367.56
561.364	370.11
561.722	365.76
562.08	367.98
562.438	368.28
562.795	368.37
563.153	367.88
563.511	366.08
563.868	370.4
564.226	368.5
564.583	366.73
564.941	366.71
565.298	366.46
565.656	369.53
566.013	366.69
566.37	366.58
566.727	366.23
567.085	367.1
567.442	368.47
567.799	365.17
568.156	367.14
568.513	365.15
568.87	368.11
569.226	366.46
569.583	367.37
569.94	367.39
570.297	367.73
570.653	365.49
571.01	366.96
571.366	366.43
571.723	365.44
572.079	366.56
572.436	366.31
572.792	367.3
573.148	367
573.505	367.39
573.861	366.81
574.217	368.55
574.573	367.65
574.929	365.21
575.285	366.33
575.641	366.89
575.997	368.52
576.352	368.43
576.708	370.12
577.064	370.7
577.42	370.77
577.775	368.67
578.131	367.54
578.486	370.72
578.842	371.81
579.197	371.15
579.552	370.95
579.908	372.2
580.263	371.7
580.618	373.61
580.973	372.96
581.328	370.73
581.683	372.72
582.038	372.32
582.393	372.24
582.748	373.6
583.103	375.56
583.458	375.07
583.812	374.95
584.167	374.6
584.522	376.11
584.876	374.89
585.231	374.37
585.585	372.54
585.939	372.56
586.294	374.64
586.648	373.13
587.002	377.01
587.356	377.65
587.711	378.49
588.065	377.55
588.419	375.01
588.773	372.37
589.127	374.6
589.48	372.07
589.834	373.28
590.188	369.77
590.542	371.57
590.895	369.72
591.249	370.66
591.603	370.86
591.956	370.28
592.309	370.36
592.663	373.44
593.016	369.76
593.369	371.32
593.723	372.53
594.076	370.61
594.429	370.45
594.782	368.25
595.135	368.24
595.488	365.57
595.841	368.43
596.194	366.9
596.547	365.97
596.899	366.45
597.252	366.37
597.605	366.87
597.957	365.74
598.31	365.74
598.662	366.48
599.015	367.51
599.367	369.51
599.719	370.14
600.072	368.98
600.424	370.36
600.776	366.65
601.128	366.25
601.48	366.28
601.832	363.18
602.184	366.16
602.536	363.5
602.888	364.78
603.24	366.64
603.592	365.49
603.943	364.42
604.295	366.32
604.646	364.38
604.998	366.67
605.349	366.12
605.701	367.13
606.052	367.78
606.404	365.75
606.755	366.43
607.106	366.22
607.457	365.81
607.808	365.78
608.159	367.68
608.51	367.74
608.861	372.12
609.212	370.02
609.563	372.03
609.914	377.52
610.265	382.85
610.615	397.53
610.966	413.9
611.316	421.45
611.667	423.21
612.017	413.7
612.368	404.7
612.718	394.31
613.068	388.5
613.419	385.13
613.769	382.56
614.119	379.32
614.469	379.19
614.819	378.85
615.169	376.8
615.519	374.18
615.869	373.8
616.219	373.86
616.568	370.51
616.918	371.01
617.268	370.57
617.617	368.78
617.967	367.99
618.316	368.7
618.666	368.88
619.015	368.8
619.364	368.34
619.714	369.35
620.063	368.95
620.412	369.38
620.761	370.05
621.11	370.53
621.459	371.86
621.808	370.89
622.157	368.09
622.506	369.62
622.855	369.49
623.203	368.35
623.552	367.18
623.901	368.38
624.249	367.46
624.598	368.49
624.946	367.44
625.295	368.11
625.643	366.81
625.991	366.58
626.34	367.26
626.688	363.59
627.036	366.83
627.384	364.19
627.732	367.03
628.08	363.75
628.428	365.96
628.776	364.49
629.124	364.51
629.471	365.8
629.819	365.92
630.167	368.88
630.514	367.65
630.862	370.08
631.209	372.01
631.557	369.93
631.904	367.97
632.251	366.91
632.599	366.33
632.946	365.41
633.293	363.21
633.64	363.01
633.987	363.38
634.334	363.1
634.681	362.98
635.028	363.51
635.375	361.86
635.722	362.12
636.068	362.88
636.415	361.68
636.762	362.16
637.108	362.75
637.455	362.59
637.801	362.79
638.147	361.73
638.494	360.94
638.84	361.02
639.186	361.15
639.532	364.13
639.878	362.36
640.225	361.55
640.571	361.77
640.916	361.77
641.262	362.44
641.608	362.85
641.954	362.26
642.3	362.87
642.645	360.23
642.991	363.38
643.337	362.12
643.682	363.52
644.028	362.72
644.373	361.02
644.718	363.37
645.064	362.08
645.409	361.51
645.754	362.21
646.099	363.6
646.444	361.87
646.789	362.66
647.134	363.86
647.479	361.79
647.824	362.13
648.169	362.66
648.513	361.76
648.858	361.99
649.203	364.09
649.547	362.18
649.892	362.83
650.236	362.94
650.581	365.24
650.925	363.68
651.269	362.77
651.613	363.2
651.958	363.51
652.302	362.18
652.646	361.48
652.99	361.6
653.334	360.98
653.678	361.1
654.022	360.85
654.365	361.43
654.709	361.97
655.053	361.41
655.396	362.62
655.74	360.93
656.083	359.39
656.427	362.19
656.77	360.42
657.114	362.07
657.457	361.74
657.8	360.9
658.143	361.54
658.486	361.4
658.83	361.78
659.173	360.47
659.516	361.5
659.858	360.17
660.201	361.04
660.544	361.74
660.887	361.92
661.229	360.35
661.572	362.15
661.915	360.82
662.257	362.58
662.6	361.68
662.942	361.73
663.284	361.8
663.627	360.63
663.969	360.85
664.311	360.49
664.653	361.1
664.995	360.81
665.337	360.76
665.679	358.94
666.021	362.08
666.363	360.39
666.705	360.26
667.046	359.23
667.388	361.44
667.73	361.29
668.071	361.68
668.413	360.6
668.754	361.17
669.096	362.9
669.437	360.92
669.778	361.89
670.119	361.36
670.461	361.75
670.802	361.13
671.143	359.81
671.484	358.93
671.825	360.12
672.165	360.12
672.506	359.85
672.847	359.34
673.188	359.37
673.528	361.16
673.869	359.9
674.21	359.43
674.55	360.46
674.89	359.48
675.231	360.52
675.571	362.43
675.911	359.87
676.252	361.59
676.592	359.7
676.932	359.26
677.272	361.97
677.612	359.6
677.952	360.03
678.292	359.64
678.631	361.09
678.971	359.01
679.311	361.18
679.651	359.51
679.99	358.96
680.33	360.98
680.669	362.41
681.009	360.87
681.348	360.74
681.687	361.28
682.026	361.79
682.366	358.88
682.705	358.73
683.044	359.8
683.383	358.4
683.722	361.05
684.061	359.85
684.4	360.12
684.738	361.81
685.077	360.19
685.416	361.86
685.754	359.11
686.093	360.42
686.431	360.79
686.77	358.27
687.108	360.32
687.447	358.93
687.785	360.37
688.123	360.97
688.461	359.11
688.799	362.72
689.137	360.79
689.475	360.35
689.813	360.91
690.151	358.69
690.489	360.23
690.827	358.76
691.164	358.72
691.502	359.04
691.84	359.11
692.177	360.46
692.515	360.83
692.852	359.97
693.189	360.35
693.527	361.71
693.864	360.01
694.201	357.06
694.538	359.49
694.875	358.67
695.212	358.45
695.549	360.12
695.886	358.36
696.223	359.35
696.56	359.89
696.897	358.37
697.233	358.4
697.57	360.8
697.906	359.67
698.243	358.56
698.579	359.29
698.916	359.87
699.252	358.86
699.588	359.45
699.924	359.88
700.261	358.47
700.597	359.93
700.933	359.21
701.269	358.65
701.605	358.28
701.941	361.17
702.276	358.55
702.612	359.13
702.948	359.03
703.283	361.68
703.619	359.65
703.954	359.75
704.29	359.06
704.625	358.36
704.961	361.52
705.296	360.2
705.631	360.27
705.966	360.24
706.301	360.11
706.637	360.02
706.972	360.59
707.306	361.41
707.641	361.91
707.976	359.66
708.311	361.41
708.646	360.98
708.98	361.99
709.315	362.08
709.649	362.23
709.984	360.76
710.318	362.02
710.653	360.36
710.987	361.14
711.321	360.43
711.655	360.08
711.989	358.01
712.324	359.37
712.658	359.54
712.992	361.67
713.325	360.64
713.659	359.66
713.993	359.64
714.327	357.87
714.66	358.5
714.994	358.58
715.328	357.02
715.661	359.84
715.994	358.51
716.328	359.17
716.661	358.32
716.994	357.96
717.328	356.69
717.661	358.47
717.994	360.32
718.327	357.42
718.66	358.18
718.993	358.34
719.325	358.29
719.658	357.85
719.991	357.9
720.324	359.21
720.656	358.97
720.989	358.17
721.321	359.04
721.654	356.87
721.986	359.34
722.318	358.11
722.651	357.49
722.983	355.94
723.315	358.05
723.647	359.02
723.979	359.34
724.311	360.21
724.643	357.25
724.975	358.01
725.307	357.81
725.638	357.71
725.97	355.83
726.302	358.28
726.633	358.31
726.965	358.35
727.296	359.68
727.628	358.05
727.959	357.14
728.29	357.07
728.621	356.21
728.952	358.33
729.284	356.75
729.615	358.96
729.945	358.59
730.276	358.8
730.607	357.9
730.938	357.84
731.269	359.49
731.599	359.46
731.93	359.29
732.261	358.67
732.591	360.6
732.922	360.38
733.252	358.36
733.582	357.16
733.912	356.99
734.243	358.78
734.573	359.48
734.903	358.89
735.233	358.05
735.563	358.04
735.893	359.1
736.223	356.58
736.552	356.33
736.882	357.25
737.212	356.17
737.541	355.97
737.871	359.3
738.2	357.56
738.53	357.75
738.859	357.48
739.188	357.37
739.518	357.12
739.847	355.53
740.176	358.14
740.505	356.82
740.834	356.76
741.163	356.28
741.492	355.6
741.821	356.64
742.15	357.49
742.478	357.61
742.807	358.14
743.136	358.45
743.464	358.06
743.793	356.38
744.121	357.14
744.449	354.79
744.778	358.16
745.106	358.94
745.434	357.72
745.762	356.47
746.09	356.9
746.418	355.08
746.746	356.83
747.074	356.48
747.402	357.32
747.73	356.62
748.057	358.79
748.385	356.73
748.712	356.91
749.04	356.49
749.367	356.33
749.695	360.21
750.022	356.71
750.349	357.11
750.677	356.98
751.004	362.05
751.331	357.67
751.658	357.11
751.985	357.41
752.312	357.86
752.639	357.99
752.966	356.89
753.292	356.28
753.619	356.49
753.946	357.96
754.272	357.74
754.599	356.39
754.925	358.01
755.251	358.05
755.578	357.81
755.904	355.92
756.23	357.31
756.556	355.77
756.882	356.21
757.208	357.54
757.534	355.52
757.86	354.99
758.186	358.41
758.512	355.93
758.838	356.91
759.163	355.57
759.489	355.48
759.814	356.21
760.14	356.5
760.465	357.73
760.791	357.61
761.116	355.44
761.441	354.31
761.766	357.94
762.092	355.64
762.417	356.18
762.742	354.83
763.066	355.69
763.391	358.07
763.716	356.4
764.041	357.7
764.366	358.28
764.69	357.61
765.015	358.73
765.339	356.04
765.664	355.52
765.988	356.95
766.312	357.16
766.637	355.82
766.961	354.78
767.285	356.17
767.609	355.9
767.933	357.45
768.257	357.71
768.581	354.92
768.905	356.95
769.229	355.61
769.552	356.62
769.876	356.09
770.2	358.5
770.523	356.54
770.847	356.01
771.17	356.66
771.493	356.58
771.817	356.59
772.14	357.21
772.463	356.44
772.786	354.48
773.109	357.66
773.432	356.03
773.755	357.19
774.078	355.71
774.401	353.82
774.724	355.12
775.046	357.39
775.369	355.72
775.692	355.6
776.014	357.68
776.336	355.23
776.659	354
776.981	356.86
777.303	355.01
777.626	357.09
777.948	354.26
778.27	356.44
778.592	356.38
778.914	354.51
779.236	356.38
779.557	356.88
779.879	355.19
780.201	355.44
780.523	354.01
780.844	356.12
781.166	355.8
781.487	356.16
781.809	352.97
782.13	353.62
782.451	357.74
782.772	354.81
783.094	356.26
783.415	356.61
783.736	353.87
784.057	355.32
784.378	355.81
784.698	356.79
785.019	355.03
785.34	356.11
785.661	357.5
785.981	356.26
786.302	353.83
786.622	354.84
786.943	356.36
787.263	355.96
787.583	354.02
787.903	356.07
788.224	356.68
788.544	354.68
788.864	356.68
789.184	356.78
789.504	356.44
789.824	355.74
790.143	354.7
790.463	354.47
790.783	354.9
791.102	353.91
791.422	354.82
791.741	356.07
792.061	354.36
792.38	356.25
792.699	353.64
793.019	355.17
793.338	354.81
793.657	355.2
793.976	354.67
794.295	355.08
794.614	354.6
794.933	356.84
795.252	355.83
795.57	356.19
795.889	355.64
796.208	354.97
796.526	357.43
796.845	356.34
797.163	355.53
797.482	352.29
797.8	355.37
798.118	355.6
798.436	356.08
798.754	355.36
799.073	354.97
799.391	355.5
799.708	354.72
800.026	355.41
800.344	355.53
800.662	354.15
800.98	354
801.297	353.77
801.615	354.47
801.932	354.5
802.25	356.79
802.567	353.51
802.884	354.73
803.202	354
803.519	355.46
803.836	354.93
804.153	354.76
804.47	352.8
804.787	354.15
805.104	355.69
805.421	353.88
805.737	357.22
806.054	355.96
806.371	354.44
806.687	354
807.004	355.24
807.32	354.97
807.637	355.61
807.953	355.24
808.269	353.27
808.585	353.92
808.902	354.33
809.218	355
809.534	355.26
809.85	357.51
810.165	355.55
810.481	355.28
810.797	354.25
811.113	354.71
811.428	353.89
811.744	354.73
812.059	354.81
812.375	353.5
812.69	353.81
813.006	355.02
813.321	356
813.636	355.43
813.951	355.04
814.266	354.78
814.581	353.75
814.896	356.21
815.211	355.92
815.526	352.53
815.841	355.46
816.155	354.92
816.47	354.14
816.784	353.45
817.099	356.4
817.413	352.06
817.728	353.98
818.042	353.85
818.356	352.93
818.67	354.96
818.985	353.8
819.299	354.06
819.613	354.32
819.926	354.18
820.24	354.11
820.554	353.79
820.868	351.17
821.182	353.31
821.495	353.53
821.809	355.11
822.122	352.66
822.436	354.6
822.749	352.31
823.062	355.43
823.376	355.77
823.689	354.42
824.002	351.81
824.315	350.64
824.628	355.63
824.941	355.39
825.254	354.3
825.566	353.07
825.879	353.98
826.192	355.53
826.504	353.32
826.817	354.32
827.129	355.04
827.442	353.29
827.754	354.41
828.066	353.78
828.379	354.53
828.691	354.61
829.003	353.53
829.315	352.16
829.627	354.33
829.939	354.02
830.251	352.18
830.562	355.59
830.874	353.71
831.186	353.33
831.497	353.5
831.809	352.67
832.12	353.76
832.432	354.49
832.743	351.49
833.054	354.04
833.365	354.66
833.676	353.43
833.988	353.39
834.299	353.66
834.61	353.6
834.92	352.48
835.231	354.15
835.542	351.9
835.853	353.43
836.163	354.75
836.474	354.1
836.784	352.08
837.095	352.35
837.405	353.38
837.715	353.65
838.026	353.64
838.336	352.15
838.646	353.5
838.956	354.89
839.266	353.7
839.576	352.8
839.886	352.67
840.195	352.08
840.505	352.8
840.815	354.71
841.124	352.86
841.434	352.96
841.743	352.95
842.053	352.75
842.362	352.95
842.671	353.92
842.981	352.33
843.29	353.38
843.599	353.81
843.908	352.94
844.217	351.99
844.526	352.16
844.835	353.74
845.143	354.06
845.452	352.85
845.761	353.17
846.069	354.03
846.378	353.52
846.686	352.06
846.995	351.59
847.303	353.64
847.611	353.83
847.919	354.61
848.227	353.33
848.535	353.93
848.843	352.91
849.151	353.14
849.459	352.83
849.767	351.34
850.075	353.23
850.382	351.66
850.69	351.86
850.998	352.56
851.305	353.19
851.612	353.62
851.92	353.06
852.227	352.09
852.534	351.34
852.841	352.25
853.148	353.28
853.455	352.43
853.762	351.95
854.069	352.02
854.376	353.51
854.683	352.74
854.99	352.52
855.296	354.06
855.603	353.27
855.909	354.26
856.216	352.06
856.522	352.23
856.828	351.31
857.135	354.27
857.441	352.4
857.747	352.41
858.053	352.75
858.359	352.96
858.665	352.74
858.971	351.62
859.276	353.31
859.582	354.54
859.888	352.1
860.193	350.47
860.499	353.48
860.804	352.76
861.11	351.45
861.415	352.66
861.72	351.64
862.026	350.36
862.331	350.65
862.636	351.3
862.941	350.76
863.246	351.54
863.551	353.2
863.855	353.7
864.16	352.5
864.465	353.59
864.769	351.71
865.074	351.64
865.378	352.4
865.683	352.31
865.987	353.08
866.291	351.98
866.596	353.06
866.9	353.07
867.204	352.31
867.508	351.42
867.812	352.49
868.116	352.85
868.42	352.11
868.723	352.65
869.027	352.09
869.331	350.74
869.634	350.49
869.938	351.76
870.241	349.81
870.544	352.54
870.848	352.81
871.151	354.04
871.454	352.03
871.757	353.83
872.06	351.42
872.363	351.27
872.666	352.35
872.969	352.5
873.272	350.44
873.574	353.79
873.877	350.41
874.18	349.73
874.482	351.37
874.785	350.89
875.087	352.56
875.389	351.53
875.692	353.32
875.994	351.32
876.296	352.52
876.598	351.69
876.9	352.53
877.202	353.73
877.504	351.13
877.805	352.89
878.107	352.26
878.409	352.87
878.71	350.1
879.012	351.6
879.313	351.11
879.615	351.52
879.916	351.09
880.217	351.36
880.518	352.26
880.82	352.4
881.121	350.54
881.422	350.64
881.723	350.59
882.023	350.17
882.324	351.19
882.625	351.07
882.926	352.02
883.226	351.18
883.527	349.8
883.827	350.32
884.128	350.68
884.428	351.05
884.728	350.25
885.028	351.25
885.328	352.42
885.629	349.71
885.929	352.52
886.228	352.01
886.528	350.51
886.828	350.02
887.128	350.36
887.427	351.2
887.727	351.06
888.027	350.68
888.326	351.75
888.625	352.2
888.925	352.38
889.224	351.97
889.523	352.9
889.822	352.04
890.121	349.74
890.42	351.98
890.719	351.08
891.018	350.21
891.317	349.37
891.616	350.21
891.914	348.97
892.213	351.55
892.512	352.32
892.81	350.62
893.108	352.81
893.407	351.6
893.705	351.04
894.003	351.49
894.301	350.59
894.599	351.07
894.897	352.42
895.195	352.26
895.493	350.17
895.791	351.92
896.089	350.88
896.386	350.04
896.684	352.76
896.981	350.52
897.279	350.77
897.576	350.29
897.874	352.47
898.171	351.61
898.468	350.76
898.765	352.14
899.062	350
899.359	352.08
899.656	352.69
899.953	350.85
900.25	351.21
900.547	351.52
900.843	350.73
901.14	349.69
901.436	350.7
901.733	349.39
902.029	350.89
902.325	351.64
902.622	350.57
902.918	351.94
903.214	351.73
903.51	350.9
903.806	352.54
904.102	350.06
904.398	352.74
904.694	350.36
904.989	350.48
905.285	350.66
905.581	351.42
905.876	352.76
906.171	350.44
906.467	350.58
906.762	352.1
907.057	351
907.353	350.71
907.648	350.68
907.943	350.74
908.238	351.49
908.533	348.93
908.827	351.14
909.122	349.1
909.417	350.49
909.711	352.54
910.006	351.71
910.301	348.84
910.595	351.4
910.889	349.66
911.184	350.79
911.478	348.62
911.772	351.7
912.066	351.17
912.36	349.63
912.654	350.21
912.948	350.68
913.242	349.07
913.536	351.94
913.829	349.13
914.123	350.03
914.416	350.27
914.71	349.7
915.003	348.12
915.297	349.64
915.59	349.72
915.883	351.76
916.176	352.23
916.469	350.04
916.762	350.57
917.055	351.19
917.348	349.04
917.641	350.4
917.934	348.36
918.226	349.02
918.519	350.75
918.811	350.68
919.104	348.83
919.396	351.04
919.689	350.85
919.981	351.52
920.273	350.83
920.565	350.61
920.857	349.19
921.149	348.57
921.441	350.71
921.733	350.71
922.025	350.92
922.316	349.09
922.608	349.04
922.9	349.66
923.191	351.68
923.483	349.25
923.774	348.69
924.065	348.42
924.357	349.08
924.648	349.14
924.939	350.57
925.23	350.88
925.521	351.69
925.812	349.62
926.102	350.05
926.393	348.76
926.684	348.87
926.975	350.84
927.265	349.83
927.556	350.98
927.846	351.45
928.136	348.93
928.427	348.58
928.717	348.78
929.007	347.91
929.297	350.52
929.587	349.45
929.877	349.79
930.167	349.35
930.457	352.04
930.746	350.8
931.036	351.18
931.325	348.21
931.615	351.07
931.904	349.6
932.194	349.97
932.483	350.88
932.772	349.71
933.062	348.68
933.351	350.42
933.64	350.63
933.929	349.88
934.218	349.36
934.506	349.62
934.795	348.61
935.084	349.16
935.372	352.04
935.661	350.73
935.949	349.92
936.238	350.41
936.526	350.11
936.815	348.28
937.103	350.09
937.391	348.99
937.679	349.1
937.967	350.17
938.255	350.11
938.543	347.26
938.831	351.09
939.118	348.73
939.406	348.87
939.693	350.27
939.981	349.1
940.268	350.16
940.556	349.8
940.843	349.5
941.13	349.11
941.418	348.92
941.705	348.7
941.992	349.91
942.279	348.69
942.566	349.8
942.852	348.78
943.139	346.95
943.426	349.75
943.712	349.79
943.999	349.87
944.285	349.06
944.572	348.76
944.858	350.5
945.144	350.36
945.431	347.45
945.717	349.17
946.003	349.07
946.289	349.67
946.575	349.67
946.861	349.65
947.146	349.05
947.432	348.92
947.718	348.47
948.003	348.54
948.289	348.2
948.574	349.73
948.86	348.74
949.145	347.23
949.43	350.33
949.715	350.16
950	348.69
950.285	347.51
950.57	349.06
950.855	349.87
951.14	349.71
951.425	349.84
951.709	349.73
951.994	349.01
952.278	350.29
952.563	349.6
952.847	348.77
953.132	348.86
953.416	348.92
953.7	348.2
953.984	351.09
954.268	350.14
954.552	350.1
954.836	348.92
955.12	350.98
955.404	348.44
955.687	349.59
955.971	350.49
956.254	349.8
956.538	348.62
956.821	349.87
957.105	347.88
957.388	347.54
957.671	349.1
957.954	347.3
958.237	348.9
958.52	347.84
958.803	349.33
959.086	348.4
959.369	348.76
959.652	348.38
959.934	348.46
960.217	348.81
960.499	348.12
960.782	348.6
961.064	346.94
961.346	349.11
961.629	348.79
961.911	348.03
962.193	348.93
962.475	349.12
962.757	349.42
963.039	348.66
963.32	348.59
963.602	346.79
963.884	349.32
964.165	348.37
964.447	349.05
964.728	346.68
965.01	348.06
965.291	349.47
965.572	349.01
965.853	345.95
966.134	347.44
966.415	348.24
966.696	349.3
966.977	347.44
967.258	349.12
967.539	349.99
967.819	348.94
968.1	347.25
968.38	348.07
968.661	346.71
968.941	348.17
969.222	348.27
969.502	347.48
969.782	347.82
970.062	349.6
970.342	346.63
970.622	348.46
970.902	350.5
971.182	347.92
971.462	346.15
971.741	350.01
972.021	348.93
972.3	349.66
972.58	346.79
972.859	347.54
973.138	347.38
973.418	347.75
973.697	347.83
973.976	348.46
974.255	348.39
974.534	347.92
974.813	347.65
975.092	348.93
975.37	350.03
975.649	348.73
975.928	347.57
976.206	350.54
976.485	349.03
976.763	348.49
977.041	347.28
977.32	347.09
977.598	347.6
977.876	350.49
978.154	347.91
978.432	351.62
978.71	348.79
978.988	347.27
979.265	348.12
979.543	345.26
979.821	347.34
980.098	347.42
980.376	348.51
980.653	346.65
980.93	348.89
981.208	347.1
981.485	348.43
981.762	349.67
982.039	347.01
982.316	346.13
982.593	349.57
982.87	348.18
983.146	349.36
983.423	349.31
983.7	346.44
983.976	348.31
984.253	348.68
984.529	348.32
984.805	348.61
985.082	348.3
985.358	348.64
985.634	348.78
985.91	347.87
986.186	347.53
986.462	347.76
986.738	348.37
987.013	347.97
987.289	347.43
987.565	349.45
987.84	347.26
988.116	348.69
988.391	347.04
988.666	347.43
988.942	347.65
989.217	347.6
989.492	348.15
989.767	346.49
990.042	347.24
990.317	348.41
990.592	347.4
990.866	347.1
991.141	347.25
991.416	347.02
991.69	346.7
991.964	349.22
992.239	347.82
992.513	349.19
992.787	345
993.062	346.57
993.336	347.98
993.61	347.19
993.884	346.25
994.158	348.41
994.431	346.67
994.705	348.19
994.979	350.42
995.252	347.56
995.526	349.23
995.799	347.36
996.073	348.44
996.346	347.12
996.619	348.05
996.892	348.08
997.165	346.96
997.438	348.36
997.711	348.44
997.984	346.52
998.257	347.53
998.53	348.3
998.802	346.07
999.075	346.84
999.347	348.06
999.62	346.82
999.892	347.69
1000.165	347.05
1000.437	345.7
1000.709	347.96
1000.981	345.31
1001.253	346.65
1001.525	348.75
1001.797	347.46
1002.068	346.87
1002.34	346.31
1002.612	347.59
1002.883	346.87
1003.155	348.06
1003.426	346.92
1003.698	346.87
1003.969	345.45
1004.24	345.68
1004.511	345.95
1004.782	346.17
1005.053	348.25
1005.324	347.13
1005.595	345.22
1005.866	347.91
1006.136	347.93
1006.407	347.23
1006.678	345.86
1006.948	346.22
1007.218	346.37
1007.489	345.77
1007.759	346.23
1008.029	346.38
1008.299	348.06
1008.569	345.46
1008.839	348.69
1009.109	346.29
1009.379	345.73
1009.649	347.96
1009.918	345.8
1010.188	345.75
1010.458	345.45
1010.727	347.58
1010.996	346.04
1011.266	347.5
1011.535	348.23
1011.804	346.94
1012.073	345.82
1012.342	347.45
1012.611	347.54
1012.88	345.41
1013.149	346.99
1013.417	344.94
1013.686	347.67
1013.955	347
1014.223	346.4
1014.492	346.72
1014.76	346.02
1015.028	345.92
1015.296	346.88
1015.565	347.72
1015.833	346.27
1016.101	345.77
1016.368	346
1016.636	347.06
1016.904	345.79
1017.172	347.92
1017.439	346.34
1017.707	346.22
1017.974	346.22
1018.242	346.39
1018.509	344.24
1018.776	347.9
1019.044	347.47
1019.311	346.9
1019.578	345.8
1019.845	345.94
1020.112	347.06
1020.378	347.06
1020.645	347.06
