Data from 190703_Ar_22K_no_film_FLMS138901_15-56-51-684.txt Node
Date: Wed Jul 03 15:56:51 EDT 2019
User: pSAM
Spectrometer: FLMS13890
Trigger mode: 0
Integration Time (sec): 5.000000E-3
Scans to average: 1000
Electric dark correction enabled: true
Nonlinearity correction enabled: false
Boxcar width: 0
XAxis mode: Wavelengths
Number of Pixels in Spectrum: 2048
>>>>>Begin Spectral Data<<<<<
342.097	-60.99
342.483	-60.99
342.868	-60.99
343.254	-103.61
343.639	-104.52
344.025	-102
344.41	-99.58
344.796	-90.71
345.181	-80.88
345.567	-67.95
345.952	-52.52
346.337	-35.49
346.722	-18.58
347.107	-0.53
347.493	19.09
347.878	40.45
348.263	60.89
348.648	77.78
349.033	97.9
349.418	117.1
349.802	135.02
350.187	152.77
350.572	170.39
350.957	229.12
351.342	356.16
351.726	376.89
352.111	394.72
352.495	410.29
352.88	422.5
353.264	433.17
353.649	447.65
354.033	458.17
354.418	468.19
354.802	476.82
355.186	484.45
355.57	492.68
355.955	498.21
356.339	505.44
356.723	511.9
357.107	514.71
357.491	532.95
357.875	523.28
358.259	520.77
358.643	525.68
359.026	528.94
359.41	530.46
359.794	529.69
360.178	531.42
360.561	531.84
360.945	533.19
361.329	530.81
361.712	531.67
362.096	530.37
362.479	531.71
362.862	534.73
363.246	530.99
363.629	529.85
364.012	529.39
364.396	530.25
364.779	530.94
365.162	531.42
365.545	532.8
365.928	534.21
366.311	533.88
366.694	534.93
367.077	538.61
367.46	536.84
367.843	538.61
368.226	541.49
368.608	540.99
368.991	544.2
369.374	542.38
369.756	545.63
370.139	544.62
370.521	543.41
370.904	547.89
371.286	550.14
371.669	548.65
372.051	551.77
372.433	553.01
372.816	556.39
373.198	556.37
373.58	558.81
373.962	560.51
374.344	561.26
374.726	565.59
375.108	566.38
375.49	568.66
375.872	569.72
376.254	571.17
376.636	572.3
377.018	571.61
377.399	573.97
377.781	578.21
378.163	578.17
378.544	580.41
378.926	589.01
379.307	592.58
379.689	596.61
380.07	594.49
380.452	599.32
380.833	598.95
381.214	605.8
381.596	609.89
381.977	618.25
382.358	620.08
382.739	625.82
383.12	628.58
383.501	631.74
383.882	631.21
384.263	631.34
384.644	630.58
385.025	637.72
385.406	638.8
385.787	642.8
386.167	644.27
386.548	648.05
386.929	655.5
387.309	661.52
387.69	670.86
388.07	678.23
388.451	682.73
388.831	688.12
389.211	683.22
389.592	676.79
389.972	674.48
390.352	679.03
390.733	679.33
391.113	680.38
391.493	684.75
391.873	694.32
392.253	699.58
392.633	712.68
393.013	719.4
393.393	724.36
393.772	718.8
394.152	723.71
394.532	725.95
394.912	731.16
395.291	727.45
395.671	729.83
396.05	723.81
396.43	726.25
396.809	725.08
397.189	736.43
397.568	743.97
397.948	746.35
398.327	755.28
398.706	763.73
399.085	766.74
399.465	765.42
399.844	761.79
400.223	754.52
400.602	758.97
400.981	755.78
401.36	756.05
401.739	758.1
402.117	761.68
402.496	759.53
402.875	761.58
403.254	770.51
403.632	771.17
404.011	778.67
404.39	788.89
404.768	792.03
405.147	805.3
405.525	813.02
405.903	814.03
406.282	821.4
406.66	812.89
407.038	806.09
407.417	802.83
407.795	801.37
408.173	802.93
408.551	809.36
408.929	814.38
409.307	816.31
409.685	824.15
410.063	828.23
410.441	829.32
410.818	834.72
411.196	834.26
411.574	844.49
411.952	846.36
412.329	862.65
412.707	878.88
413.084	887.66
413.462	891.65
413.839	895.69
414.217	883.05
414.594	883.43
414.971	886.16
415.349	891.31
415.726	890.61
416.103	884.24
416.48	889.25
416.857	896.1
417.234	904.86
417.611	908.97
417.988	912.27
418.365	901.31
418.742	905.56
419.119	912.62
419.495	913.81
419.872	911.68
420.249	938.86
420.625	948.87
421.002	961.18
421.379	970.47
421.755	985.93
422.131	1000.28
422.508	1001.33
422.884	1007.1
423.26	1015.77
423.637	1030.2
424.013	1003.53
424.389	997.93
424.765	990.69
425.141	995.7
425.517	991.78
425.893	983.22
426.269	986.17
426.645	988.69
427.021	1020.32
427.397	1033.31
427.772	1046.02
428.148	1039.96
428.524	1045.03
428.899	1033.16
429.275	1045.01
429.651	1059.43
430.026	1077.81
430.401	1091.29
430.777	1087.95
431.152	1088.29
431.527	1079.3
431.903	1080.46
432.278	1074.78
432.653	1075.1
433.028	1082.75
433.403	1108.33
433.778	1136.08
434.153	1139.95
434.528	1133.5
434.903	1131.73
435.278	1139.82
435.653	1146.14
436.027	1149.98
436.402	1158.71
436.777	1167.26
437.151	1170.11
437.526	1179.71
437.9	1182.05
438.275	1197.76
438.649	1195.7
439.023	1205.2
439.398	1206.2
439.772	1204.14
440.146	1212.28
440.52	1225.1
440.895	1249.62
441.269	1282.84
441.643	1303.36
442.017	1303.38
442.391	1298.57
442.765	1294.43
443.138	1283.95
443.512	1301.47
443.886	1309.41
444.26	1310.85
444.633	1320.36
445.007	1322.78
445.38	1325.03
445.754	1329.52
446.127	1337.97
446.501	1334.55
446.874	1333.73
447.248	1328.42
447.621	1341.77
447.994	1333.27
448.367	1339.25
448.741	1342.56
449.114	1337.56
449.487	1351.79
449.86	1356.05
450.233	1359.48
450.606	1353.67
450.978	1349.97
451.351	1358.51
451.724	1355.15
452.097	1359.67
452.469	1367.54
452.842	1362.79
453.215	1371.2
453.587	1375.56
453.96	1377.52
454.332	1380.01
454.704	1392.57
455.077	1397.6
455.449	1413.2
455.821	1411.62
456.194	1432.33
456.566	1433.06
456.938	1445.65
457.31	1460.44
457.682	1484.54
458.054	1497.74
458.426	1514.84
458.798	1523.34
459.17	1537.45
459.541	1532.27
459.913	1513.31
460.285	1517.61
460.656	1523.25
461.028	1519.56
461.399	1537.26
461.771	1530.63
462.142	1541.89
462.514	1565.6
462.885	1584.95
463.256	1622.68
463.628	1640.36
463.999	1665.83
464.37	1703.3
464.741	1711.36
465.112	1702.99
465.483	1712.94
465.854	1720.99
466.225	1711.99
466.596	1710.46
466.967	1734.66
467.338	1733.06
467.708	1765.45
468.079	1769.6
468.45	1787.09
468.82	1793.75
469.191	1798.23
469.561	1791.99
469.932	1803.35
470.302	1792.55
470.673	1826.81
471.043	1844.62
471.413	1864.31
471.783	1892.31
472.154	1924.81
472.524	1948.6
472.894	2000.9
473.264	2031.78
473.634	2032.79
474.004	2041.79
474.374	2072.92
474.743	2089.65
475.113	2131.64
475.483	2157.43
475.853	2188.29
476.222	2212.45
476.592	2255.09
476.961	2244.89
477.331	2257.44
477.7	2289.96
478.07	2349.94
478.439	2373.31
478.808	2399.93
479.178	2410.3
479.547	2459.78
479.916	2469.88
480.285	2526.33
480.654	2543.35
481.023	2578.84
481.392	2605.26
481.761	2632.27
482.13	2660.52
482.499	2691.05
482.867	2719.71
483.236	2783.01
483.605	2848.31
483.973	2880.06
484.342	2944.52
484.71	2990.63
485.079	3083.17
485.447	3498.19
485.816	3868.43
486.184	4065.97
486.552	3832.21
486.921	3539.2
487.289	3336.98
487.657	3281.33
488.025	3252.42
488.393	3261.89
488.761	3297.59
489.129	3339.6
489.497	3363.61
489.865	3433.91
490.233	3468.58
490.6	3512.29
490.968	3504.38
491.336	3528.02
491.703	3545.39
492.071	3586.42
492.438	3618.87
492.806	3664.57
493.173	3724.45
493.541	3759.37
493.908	3764.14
494.275	3766.08
494.642	3779.11
495.01	3793.12
495.377	3806.27
495.744	3837.73
496.111	3917.16
496.478	3979.9
496.845	3992.95
497.211	3987.32
497.578	3994.98
497.945	4021.06
498.312	4095.67
498.678	4156.28
499.045	4210.7
499.412	4208.2
499.778	4224.62
500.145	4224.14
500.511	4229.07
500.878	4282.9
501.244	4337.01
501.61	4364.89
501.976	4367.37
502.343	4377.15
502.709	4423.27
503.075	4432.75
503.441	4437.84
503.807	4460.56
504.173	4448.4
504.539	4470.73
504.905	4504.46
505.27	4545.74
505.636	4571.7
506.002	4610.39
506.367	4615.49
506.733	4627.05
507.099	4619.14
507.464	4640.07
507.829	4669.23
508.195	4727
508.56	4736.53
508.926	4730.07
509.291	4754.12
509.656	4773.09
510.021	4808.95
510.386	4835.66
510.751	4861.45
511.116	4898.81
511.481	4916.03
511.846	4954.92
512.211	4957.35
512.576	4981.67
512.941	4982.92
513.305	5019.49
513.67	5032.98
514.035	5049.18
514.399	5087.56
514.764	5086.72
515.128	5106.52
515.493	5132.97
515.857	5152.57
516.221	5163.74
516.585	5205.69
516.95	5233.35
517.314	5249.13
517.678	5262.18
518.042	5282.61
518.406	5342.21
518.77	5345.44
519.134	5373.11
519.498	5424.55
519.862	5421.82
520.225	5386.16
520.589	5428.08
520.953	5459.82
521.316	5493.71
521.68	5521.3
522.043	5570.81
522.407	5556.21
522.77	5577.57
523.134	5632.69
523.497	5623.97
523.86	5665.42
524.223	5697.56
524.587	5726.16
524.95	5728.18
525.313	5778.53
525.676	5810.09
526.039	5834.75
526.402	5847.22
526.765	5926.04
527.127	5939.37
527.49	5983.72
527.853	6005.67
528.215	6006.11
528.578	6058.1
528.941	6077.25
529.303	6139.35
529.666	6177.01
530.028	6204.22
530.39	6226.04
530.753	6242.36
531.115	6276.14
531.477	6335.83
531.839	6355.02
532.201	6372.85
532.564	6396.39
532.926	6440.09
533.287	6535.37
533.649	6571.23
534.011	6609.78
534.373	6664.49
534.735	6698.33
535.097	6706.67
535.458	6765.53
535.82	6813.35
536.181	6815.81
536.543	6825.89
536.904	6813.65
537.266	6913.34
537.627	6953.37
537.988	6984.56
538.35	7042.47
538.711	7090.99
539.072	7151.49
539.433	7136.93
539.794	7189.76
540.155	7213.81
540.516	7264.86
540.877	7312.67
541.238	7359.4
541.599	7432.43
541.959	7454.57
542.32	7504.82
542.681	7548.38
543.041	7580.07
543.402	7609.81
543.762	7621.56
544.123	7630.39
544.483	7690.23
544.844	7735.53
545.204	7751.84
545.564	7776.69
545.924	7800.39
546.284	7834.1
546.644	7870.62
547.004	7900.39
547.364	7953.91
547.724	8012.98
548.084	8015.66
548.444	8089.56
548.804	8119.44
549.164	8133.43
549.523	8153.85
549.883	8165.25
550.242	8205.72
550.602	8246.95
550.961	8239.47
551.321	8235.4
551.68	8267.37
552.04	8330.66
552.399	8394.1
552.758	8426.67
553.117	8391.25
553.476	8501.98
553.835	8528.12
554.194	8553.09
554.553	8513.12
554.912	8504.98
555.271	8551.95
555.63	8605.04
555.989	8674.79
556.347	8658.21
556.706	8684.58
557.065	8676.91
557.423	8718.56
557.782	8773.66
558.14	8809.37
558.499	8811.61
558.857	8834.77
559.215	8854.13
559.573	8895.11
559.932	8952.27
560.29	9006.49
560.648	9041.16
561.006	9117.49
561.364	9132.29
561.722	9142.91
562.08	9223.57
562.438	9156.53
562.795	9213.94
563.153	9249.72
563.511	9267.2
563.868	9362.25
564.226	9385.72
564.583	9423.41
564.941	9376.53
565.298	9482.13
565.656	9483.7
566.013	9463.39
566.37	9504.34
566.727	9589.61
567.085	9713.12
567.442	9819.6
567.799	9872.56
568.156	9940.1
568.513	10034.67
568.87	10128.09
569.226	10298.06
569.583	10507.67
569.94	10558.34
570.297	10640.87
570.653	10606.43
571.01	10656.51
571.366	10866.69
571.723	10967.84
572.079	10953.15
572.436	10940.63
572.792	10927.33
573.148	11094.06
573.505	11258.67
573.861	11535.93
574.217	11635.09
574.573	11684
574.929	11611.79
575.285	11609.36
575.641	11699.82
575.997	11792.57
576.352	11868.26
576.708	11951.54
577.064	12073.94
577.42	12276.76
577.775	12525.06
578.131	12617.82
578.486	12508.12
578.842	12259.17
579.197	12253.04
579.552	12334.4
579.908	12566.94
580.263	12787.81
580.618	12685.12
580.973	12825.07
581.328	13309.16
581.683	13810.63
582.038	14113.04
582.393	13649.65
582.748	13104.21
583.103	12572.64
583.458	12335.77
583.812	12339.99
584.167	12605.58
584.522	12880.83
584.876	13130.09
585.231	13182.05
585.585	13215.63
585.939	13029.34
586.294	12879.92
586.648	12792.35
587.002	12759.46
587.356	12925.03
587.711	13224.24
588.065	13296.36
588.419	13384.47
588.773	13219.31
589.127	12952.73
589.48	12862.28
589.834	12633.11
590.188	12633.71
590.542	12660.39
590.895	12574.87
591.249	12695.41
591.603	12629.5
591.956	12687.91
592.309	12833.88
592.663	13045.93
593.016	13302.75
593.369	13468.16
593.723	13336.72
594.076	13209.49
594.429	13194.59
594.782	13344.34
595.135	13587.56
595.488	13640.53
595.841	13525.84
596.194	13341.52
596.547	13221.72
596.899	13191.68
597.252	13181.58
597.605	13194.76
597.957	13188.97
598.31	13218.61
598.662	13332.9
599.015	13380.32
599.367	13537.26
599.719	13524.3
600.072	13501.18
600.424	13527.04
600.776	13632.73
601.128	13714.84
601.48	13790.79
601.832	13859.73
602.184	13866.31
602.536	13871.11
602.888	13947.07
603.24	14113.07
603.592	14272.64
603.943	14275.62
604.295	14083.41
604.646	13865.46
604.998	13803.04
605.349	13911.44
605.701	14019.61
606.052	14119.79
606.404	14061.85
606.755	14055.67
607.106	14152.78
607.457	14126.11
607.808	14048.02
608.159	14020.18
608.51	14063.39
608.861	14034.12
609.212	13939.02
609.563	14139.22
609.914	14280.08
610.265	14324.6
610.615	14472.14
610.966	14484.21
611.316	14533.79
611.667	14629.79
612.017	14640.26
612.368	14429.08
612.718	14573.61
613.068	14534.75
613.419	14596.66
613.769	14638.98
614.119	14695.51
614.469	14743.76
614.819	14578.66
615.169	14521.98
615.519	14704.27
615.869	14652.96
616.219	14544.09
616.568	14381.58
616.918	14361.35
617.268	14497.22
617.617	14606.57
617.967	14639.31
618.316	14544.11
618.666	14590.3
619.015	14613.76
619.364	14556.62
619.714	14754.63
620.063	14807.76
620.412	14815.34
620.761	14805.93
621.11	14734.9
621.459	14562.57
621.808	14674.93
622.157	14835.17
622.506	14908.98
622.855	15041.8
623.203	15097.86
623.552	15141.42
623.901	15186.05
624.249	15151.5
624.598	15288.14
624.946	15194.72
625.295	15052.41
625.643	14955.68
625.991	15002.06
626.34	14991.66
626.688	15054.91
627.036	15134.58
627.384	15102.98
627.732	15223.99
628.08	15223.16
628.428	15211.27
628.776	15204.12
629.124	15246.81
629.471	15339.73
629.819	15414.33
630.167	15479.48
630.514	15433.62
630.862	15295.87
631.209	15342.2
631.557	15350.74
631.904	15397.47
632.251	15449.81
632.599	15420.09
632.946	15457.18
633.293	15611.79
633.64	15566.54
633.987	15560.12
634.334	15534.41
634.681	15621.89
635.028	15644.87
635.375	15658.96
635.722	15787.24
636.068	15781.68
636.415	15828.04
636.762	15919.75
637.108	15941.27
637.455	15856.35
637.801	15835.88
638.147	15950.41
638.494	15907.46
638.84	16061.04
639.186	15978.55
639.532	15945.12
639.878	16028.22
640.225	15983.66
640.571	16006.29
640.916	16022.92
641.262	16052.8
641.608	16027.89
641.954	16055.17
642.3	16098.87
642.645	16023.94
642.991	16108.99
643.337	16235.89
643.682	16245.07
644.028	16278.51
644.373	16258.29
644.718	16258.61
645.064	16291.61
645.409	16360.54
645.754	16443.77
646.099	16547.4
646.444	16516.28
646.789	16503.74
647.134	16457.19
647.479	16563.91
647.824	16575.71
648.169	16583.92
648.513	16689.85
648.858	16726.57
649.203	16733.41
649.547	16757.21
649.892	16762.78
650.236	16830.15
650.581	16779.51
650.925	16831.53
651.269	16860.14
651.613	16897.13
651.958	16841.08
652.302	16861.63
652.646	16866.96
652.99	16994.17
653.334	17083.8
653.678	16934.87
654.022	16971.06
654.365	17052.36
654.709	17059.03
655.053	17071.98
655.396	17581.01
655.74	23285.37
656.083	32383.92
656.427	38488.93
656.77	39185.53
657.114	30230.02
657.457	22731.95
657.8	19124.63
658.143	17802.03
658.486	17410.63
658.83	17351.34
659.173	17208.57
659.516	17182.57
659.858	17114.7
660.201	17113.81
660.544	17047.73
660.887	17052.25
661.229	17099.57
661.572	17105.72
661.915	17160.2
662.257	17088.16
662.6	17257.92
662.942	17221.29
663.284	17216.41
663.627	17291.6
663.969	17277.04
664.311	17255.86
664.653	17248.31
664.995	17201.86
665.337	17211.7
665.679	17174.23
666.021	17214.36
666.363	17124.6
666.705	17160.5
667.046	17070.12
667.388	17103.59
667.73	17141.87
668.071	17132.77
668.413	17263.48
668.754	17258.48
669.096	17178.23
669.437	17335.17
669.778	17279.63
670.119	17291.15
670.461	17275.37
670.802	17213.19
671.143	17121.1
671.484	17315.45
671.825	17361.38
672.165	17461.72
672.506	17395.12
672.847	17322.36
673.188	17436.43
673.528	17304.49
673.869	17224.62
674.21	17297.53
674.55	17210.43
674.89	17215.04
675.231	17306.57
675.571	17304.05
675.911	17280.78
676.252	17348.95
676.592	17374.22
676.932	17305.49
677.272	17188.61
677.612	17284.7
677.952	17338.39
678.292	17368.82
678.631	17281.5
678.971	17186.32
679.311	17249.53
679.651	17138.31
679.99	17281.89
680.33	17330.06
680.669	17469.86
681.009	17382.33
681.348	17380.91
681.687	17331.87
682.026	17414.26
682.366	17374.75
682.705	17398.14
683.044	17403.89
683.383	17383.55
683.722	17439.04
684.061	17366.96
684.4	17468.34
684.738	17516.25
685.077	17612.99
685.416	17621.33
685.754	17639.85
686.093	17642.88
686.431	17686.88
686.77	17462.85
687.108	17333.73
687.447	17340.18
687.785	17553.81
688.123	17466.23
688.461	17515.5
688.799	17348.15
689.137	17390.34
689.475	17397.05
689.813	17422.65
690.151	17411.28
690.489	17295.02
690.827	17332.19
691.164	17271.62
691.502	17260.65
691.84	17321.42
692.177	17414.29
692.515	17463.82
692.852	17271.89
693.189	17307.6
693.527	17403.19
693.864	17369.11
694.201	17398.32
694.538	17297.16
694.875	17274.49
695.212	17196.14
695.549	17221.46
695.886	17274.22
696.223	17377.13
696.56	17272.65
696.897	17185.84
697.233	17322.18
697.57	17422.32
697.906	17452.4
698.243	17396.36
698.579	17336.15
698.916	17255.27
699.252	17202.69
699.588	17275.34
699.924	17311.89
700.261	17287.63
700.597	17371.37
700.933	17337.24
701.269	17230.17
701.605	17378.94
701.941	17178.16
702.276	17328.81
702.612	17186.95
702.948	17291.5
703.283	17254.48
703.619	17217.22
703.954	17266.62
704.29	17220.06
704.625	17284.93
704.961	17192.23
705.296	17275.3
705.631	17267.98
705.966	17318.1
706.301	17265.13
706.637	17230.4
706.972	17422.16
707.306	17428.9
707.641	17449.67
707.976	17400.38
708.311	17382.84
708.646	17540.97
708.98	17373.09
709.315	17298.11
709.649	17193.98
709.984	17149.41
710.318	17102.58
710.653	17180.96
710.987	17148.22
711.321	17241.08
711.655	17319.46
711.989	17185.46
712.324	17123.34
712.658	17157.14
712.992	17253.66
713.325	17210.7
713.659	17253.42
713.993	16982.1
714.327	16987.92
714.66	17036.29
714.994	17002.21
715.328	17119.91
715.661	17136.85
715.994	17082.31
716.328	16908.72
716.661	16922.55
716.994	16987.38
717.328	16916.9
717.661	16984.93
717.994	17038.61
718.327	17001.13
718.66	16906.64
718.993	16945.33
719.325	17002.61
719.658	16927.24
719.991	16927.08
720.324	16890.71
720.656	16748.5
720.989	16693.87
721.321	16710.97
721.654	16734.28
721.986	16691.51
722.318	16598.68
722.651	16738.52
722.983	16632.21
723.315	16700.17
723.647	16617.11
723.979	16541.63
724.311	16651.39
724.643	16682.14
724.975	16581.68
725.307	16538.4
725.638	16661.34
725.97	16673.55
726.302	16763.92
726.633	16618.13
726.965	16705.61
727.296	16628.44
727.628	16569.13
727.959	16486.71
728.29	16495.08
728.621	16414.69
728.952	16453.12
729.284	16332.02
729.615	16326.68
729.945	16257.11
730.276	16260.28
730.607	16253.42
730.938	16198.05
731.269	16223.79
731.599	16306.17
731.93	16397.52
732.261	16302.71
732.591	16219.47
732.922	16041.73
733.252	16015.72
733.582	15964.36
733.912	15980.57
734.243	15986.85
734.573	15952.12
734.903	15978.37
735.233	15843.83
735.563	15966.28
735.893	16012.44
736.223	15900.46
736.552	15852.97
736.882	15698.2
737.212	15677.04
737.541	15756.47
737.871	15763.55
738.2	15699.7
738.53	15518.14
738.859	15466.53
739.188	15456.31
739.518	15481.2
739.847	15562.89
740.176	15561.7
740.505	15602.48
740.834	15466.6
741.163	15399.38
741.492	15222.08
741.821	15238.01
742.15	15055.19
742.478	15134.61
742.807	14976.87
743.136	14945.61
743.464	14916.74
743.793	14859
744.121	14729.5
744.449	14622.73
744.778	14666.06
745.106	14733.92
745.434	14713.52
745.762	14619.71
746.09	14626.16
746.418	14653.19
746.746	14601.55
747.074	14475.34
747.402	14494.58
747.73	14512.83
748.057	14540.2
748.385	14356.91
748.712	14232.86
749.04	14186.35
749.367	14310.05
749.695	14331.55
750.022	14381.25
750.349	14285.26
750.677	14227.73
751.004	14128.23
751.331	14062.47
751.658	14015.17
751.985	13937.84
752.312	13898.5
752.639	13950.82
752.966	13918.44
753.292	13862.61
753.619	13954.13
753.946	13941.08
754.272	13822.96
754.599	13817.86
754.925	13771.72
755.251	13750.28
755.578	13694.6
755.904	13599.71
756.23	13556.77
756.556	13555.82
756.882	13564.82
757.208	13536.47
757.534	13498.43
757.86	13593.76
758.186	13666.02
758.512	13572.78
758.838	13501.31
759.163	13372.01
759.489	13380.87
759.814	13251.3
760.14	13240.04
760.465	13334.2
760.791	13113.38
761.116	13005.72
761.441	13014.23
761.766	13067.97
762.092	12982.58
762.417	12827.95
762.742	12767.51
763.066	12792.41
763.391	12843.86
763.716	12824.03
764.041	12882.38
764.366	12863.23
764.69	12693.69
765.015	12666.21
765.339	12729.58
765.664	12773.43
765.988	12627.2
766.312	12523.71
766.637	12466.06
766.961	12456.82
767.285	12417.04
767.609	12218.53
767.933	12083.63
768.257	12185.17
768.581	12125.45
768.905	12184.7
769.229	12221
769.552	12174.58
769.876	12198.7
770.2	12157.83
770.523	12169.28
770.847	12092.35
771.17	11984.45
771.493	11877.54
771.817	11849.48
772.14	11717.94
772.463	11707.16
772.786	11711
773.109	11575.45
773.432	11617.79
773.755	11553.65
774.078	11559.5
774.401	11569.99
774.724	11520.01
775.046	11485.32
775.369	11447.24
775.692	11400.03
776.014	11359.27
776.336	11268.92
776.659	11293.13
776.981	11242.38
777.303	11224.35
777.626	11102.34
777.948	11065.37
778.27	11034.69
778.592	11009.74
778.914	11026.96
779.236	10940.94
779.557	10866.69
779.879	10939.86
780.201	10967.09
780.523	11065.94
780.844	11025.39
781.166	11111.48
781.487	11131.97
781.809	11069.21
782.13	11047.91
782.451	11056.98
782.772	11134.98
783.094	10979.42
783.415	11029.68
783.736	11016.06
784.057	11078.34
784.378	11082.14
784.698	11101.38
785.019	11163.51
785.34	10995.54
785.661	11117.39
785.981	11151.93
786.302	11231.07
786.622	11203.53
786.943	11212.86
787.263	11094.53
787.583	10976.37
787.903	11001.54
788.224	11054.76
788.544	11148.72
788.864	11083.63
789.184	11192.38
789.504	11130.94
789.824	11215.66
790.143	11249.21
790.463	11171.11
790.783	11116.96
791.102	11139.45
791.422	11249.85
791.741	11202.44
792.061	11145.41
792.38	11189.01
792.699	11109.01
793.019	11078.27
793.338	11033.81
793.657	11024.75
793.976	11065.52
794.295	10986.57
794.614	11069.13
794.933	11076.88
795.252	11160.4
795.57	11175.06
795.889	11110.81
796.208	10981.92
796.526	10756.01
796.845	10735.34
797.163	10704.67
797.482	10724.92
797.8	10741
798.118	10752.28
798.436	10787.62
798.754	10636.68
799.073	10589.64
799.391	10647.48
799.708	10553.55
800.026	10620.8
800.344	10685.39
800.662	10614.71
800.98	10552.79
801.297	10496.12
801.615	10490.91
801.932	10474.57
802.25	10403.02
802.567	10349.5
802.884	10309.73
803.202	10231.89
803.519	10167.39
803.836	10161.24
804.153	10098.15
804.47	10159.33
804.787	10145.05
805.104	10080.6
805.421	10095.59
805.737	10154.37
806.054	10071.75
806.371	10114.27
806.687	10113.27
807.004	9996.93
807.32	9932.21
807.637	9987.56
807.953	9951.42
808.269	9954.36
808.585	9950
808.902	9787.51
809.218	9737.87
809.534	9732.63
809.85	9666.51
810.165	9604.42
810.481	9586.91
810.797	9514.76
811.113	9517.71
811.428	9463.89
811.744	9431.43
812.059	9404.32
812.375	9313.17
812.69	9243.24
813.006	9205.27
813.321	9225.37
813.636	9261.28
813.951	9331.64
814.266	9314.13
814.581	9331.6
814.896	9231.94
815.211	9206.31
815.526	9194.2
815.841	9072.69
816.155	9106.18
816.47	9091.13
816.784	9096.34
817.099	9023.87
817.413	8930.14
817.728	8982.27
818.042	9003.15
818.356	9012.66
818.67	8959.34
818.985	8915.4
819.299	8842.38
819.613	8907
819.926	8781.06
820.24	8714.59
820.554	8684.07
820.868	8731.42
821.182	8630.63
821.495	8654.09
821.809	8587.96
822.122	8536.28
822.436	8510.79
822.749	8469.66
823.062	8380.97
823.376	8323.88
823.689	8295.69
824.002	8297.32
824.315	8225.98
824.628	8246.99
824.941	8196.97
825.254	8194.04
825.566	8148.24
825.879	8113.3
826.192	8067.82
826.504	8064.73
826.817	8069.9
827.129	8135.88
827.442	8100.96
827.754	8037.59
828.066	7999.56
828.379	7951.79
828.691	8001.99
829.003	7964.61
829.315	7926.41
829.627	7873.22
829.939	7773.32
830.251	7716.52
830.562	7669.74
830.874	7738.38
831.186	7701.62
831.497	7791.46
831.809	7710.26
832.12	7594.01
832.432	7507.49
832.743	7521.9
833.054	7512.5
833.365	7541.06
833.676	7483.22
833.988	7488.83
834.299	7465.54
834.61	7463.49
834.92	7505.86
835.231	7493.22
835.542	7489.52
835.853	7462.17
836.163	7446.1
836.474	7392.04
836.784	7344.64
837.095	7338.89
837.405	7258.86
837.715	7280.22
838.026	7210.85
838.336	7168.59
838.646	7134.61
838.956	7046.06
839.266	7024.41
839.576	7020.58
839.886	7050.47
840.195	7079.4
840.505	7013.7
840.815	6982.29
841.124	6903.39
841.434	6850.37
841.743	6807.77
842.053	6803.49
842.362	6791.59
842.671	6761.04
842.981	6726.07
843.29	6619.41
843.599	6601.66
843.908	6540.75
844.217	6468
844.526	6523.15
844.835	6520.4
845.143	6548.17
845.452	6482.43
845.761	6434.1
846.069	6315.3
846.378	6324.9
846.686	6321.27
846.995	6349.12
847.303	6348.34
847.611	6345.64
847.919	6283.11
848.227	6220.89
848.535	6168.81
848.843	6100.77
849.151	6046.86
849.459	6096.02
849.767	6099.23
850.075	6089.89
850.382	6055.29
850.69	6054.04
850.998	6002.05
851.305	5944.28
851.612	5983.31
851.92	6007.36
852.227	5948.3
852.534	5892.83
852.841	5834.31
853.148	5795.46
853.455	5827.69
853.762	5789.99
854.069	5784.65
854.376	5724.06
854.683	5703.3
854.99	5648.5
855.296	5625.11
855.603	5596.91
855.909	5596.36
856.216	5608.38
856.522	5612.52
856.828	5551.23
857.135	5507.73
857.441	5526.53
857.747	5496.9
858.053	5478.18
858.359	5372.07
858.665	5380.69
858.971	5357.52
859.276	5338.21
859.582	5273.11
859.888	5252.28
860.193	5218.46
860.499	5235.37
860.804	5245.52
861.11	5194.55
861.415	5139.32
861.72	5117.4
862.026	5074.67
862.331	5052.63
862.636	5003.05
862.941	4981.13
863.246	4967.33
863.551	4962.64
863.855	4956.49
864.16	4961.17
864.465	4915.77
864.769	4872.52
865.074	4804.67
865.378	4758.48
865.683	4727.14
865.987	4763.55
866.291	4729.88
866.596	4716.93
866.9	4684.17
867.204	4669
867.508	4615.5
867.812	4579.73
868.116	4639.1
868.42	4649.16
868.723	4627.04
869.027	4614.88
869.331	4559.84
869.634	4519.97
869.938	4421.05
870.241	4412.74
870.544	4419.53
870.848	4441.52
871.151	4427
871.454	4384.7
871.757	4340.42
872.06	4314.61
872.363	4272.37
872.666	4246.4
872.969	4210.22
873.272	4247.06
873.574	4268.78
873.877	4242.3
874.18	4231.3
874.482	4206.29
874.785	4161.03
875.087	4097.46
875.389	4073.67
875.692	4075.4
875.994	4090.26
876.296	4086.41
876.598	4052.82
876.9	3994.7
877.202	3934.18
877.504	3936.13
877.805	3944.16
878.107	3953.83
878.409	3910.7
878.71	3913.01
879.012	3874.37
879.313	3812.6
879.615	3794.49
879.916	3760.65
880.217	3733.61
880.518	3728.25
880.82	3733.59
881.121	3703.58
881.422	3683.3
881.723	3646.54
882.023	3600.7
882.324	3577.59
882.625	3537.33
882.926	3540.83
883.226	3594.13
883.527	3570.76
883.827	3557.47
884.128	3544.52
884.428	3527.45
884.728	3480.93
885.028	3458.29
885.328	3438.84
885.629	3419.35
885.929	3437.36
886.228	3434.72
886.528	3405.34
886.828	3349.66
887.128	3310.2
887.427	3278.47
887.727	3250.94
888.027	3235.5
888.326	3248.34
888.625	3278.27
888.925	3235
889.224	3211.36
889.523	3169.81
889.822	3156.58
890.121	3129.21
890.42	3123.99
890.719	3153.14
891.018	3139.08
891.317	3145.74
891.616	3130.44
891.914	3072.39
892.213	3038.37
892.512	3038.45
892.81	3025.66
893.108	3016.28
893.407	3011.21
893.705	3024.61
894.003	3027.51
894.301	2990.94
894.599	2975.88
894.897	2980.67
895.195	2967.47
895.493	2953.93
895.791	2963.59
896.089	2965.9
896.386	2978.33
896.684	3003.6
896.981	2993.49
897.279	2973.26
897.576	2985.04
897.874	2946.54
898.171	2957.92
898.468	2949.95
898.765	2939.99
899.062	2946.78
899.359	2943.6
899.656	2953.19
899.953	2930.25
900.25	2907.04
900.547	2890.73
900.843	2880.12
901.14	2870.59
901.436	2883.6
901.733	2897.06
902.029	2911.12
902.325	2932.4
902.622	2901.68
902.918	2917.83
903.214	2920.06
903.51	2885.95
903.806	2881.31
904.102	2872.11
904.398	2887.66
904.694	2901.94
904.989	2927.73
905.285	2890.71
905.581	2848.77
905.876	2836.81
906.171	2816.51
906.467	2808.6
906.762	2832.86
907.057	2836.47
907.353	2852.54
907.648	2842.38
907.943	2829.63
908.238	2811.67
908.533	2798.35
908.827	2787.3
909.122	2763.08
909.417	2748.45
909.711	2759.4
910.006	2764.27
910.301	2740.28
910.595	2737.78
910.889	2736.27
911.184	2695.15
911.478	2699.29
911.772	2700.72
912.066	2680.95
912.36	2665.86
912.654	2658.56
912.948	2660.1
913.242	2668.93
913.536	2633.88
913.829	2595.23
914.123	2562.22
914.416	2539.9
914.71	2559.99
915.003	2576.51
915.297	2580.37
915.59	2579.91
915.883	2567.52
916.176	2559.01
916.469	2548.95
916.762	2540.99
917.055	2528.24
917.348	2519.39
917.641	2524.11
917.934	2517.5
918.226	2503.92
918.519	2489.84
918.811	2475.02
919.104	2462.78
919.396	2430.05
919.689	2390.27
919.981	2365.25
920.273	2360.16
920.565	2373.97
920.857	2362.75
921.149	2347.22
921.441	2339.64
921.733	2335.96
922.025	2313.12
922.316	2279.54
922.608	2263.03
922.9	2254.92
923.191	2265.91
923.483	2275.6
923.774	2246.02
924.065	2234.17
924.357	2227.18
924.648	2215.34
924.939	2203.6
925.23	2186.4
925.521	2160.77
925.812	2133.63
926.102	2115.2
926.393	2102.89
926.684	2105.74
926.975	2098.01
927.265	2084.53
927.556	2076.95
927.846	2048.81
928.136	2030.67
928.427	2017.86
928.717	2005.44
929.007	2003
929.297	1983.6
929.587	1982.46
929.877	1979.93
930.167	1978.65
930.457	1970.22
930.746	1939.27
931.036	1922.17
931.325	1896.58
931.615	1879.28
931.904	1883.01
932.194	1866.18
932.483	1859.41
932.772	1862.75
933.062	1852.66
933.351	1843.69
933.64	1814.82
933.929	1804.22
934.218	1786.64
934.506	1776.24
934.795	1764.03
935.084	1763.27
935.372	1753.7
935.661	1743.67
935.949	1730.11
936.238	1716.63
936.526	1688.51
936.815	1669.68
937.103	1650.7
937.391	1641.99
937.679	1636.28
937.967	1637.49
938.255	1634.67
938.543	1640.71
938.831	1629.13
939.118	1620.99
939.406	1601.89
939.693	1583.41
939.981	1560.46
940.268	1549.54
940.556	1534.58
940.843	1529.25
941.13	1527.4
941.418	1522.97
941.705	1504.34
941.992	1488.31
942.279	1476.78
942.566	1465.16
942.852	1450.96
943.139	1438.52
943.426	1431.5
943.712	1425.45
943.999	1420.5
944.285	1419.54
944.572	1410.74
944.858	1398.69
945.144	1392.44
945.431	1370.77
945.717	1357.38
946.003	1346.21
946.289	1334.43
946.575	1328.99
946.861	1331.47
947.146	1336.22
947.432	1337.17
947.718	1327.95
948.003	1314.05
948.289	1301.01
948.574	1282.9
948.86	1268.95
949.145	1256.34
949.43	1238.67
949.715	1234.74
950	1227.83
950.285	1228.08
950.57	1233.4
950.855	1232.37
951.14	1222.62
951.425	1212.79
951.709	1197.39
951.994	1180.4
952.278	1171.97
952.563	1161.6
952.847	1155.63
953.132	1155.49
953.416	1159.38
953.7	1153.13
953.984	1148.24
954.268	1141.03
954.552	1128.08
954.836	1109.99
955.12	1098.78
955.404	1088.42
955.687	1076.41
955.971	1071.45
956.254	1068.69
956.538	1064.3
956.821	1058.04
957.105	1053.73
957.388	1046.09
957.671	1034.31
957.954	1026.02
958.237	1016.67
958.52	1003.86
958.803	1001.03
959.086	992.01
959.369	992.69
959.652	989.65
959.934	986.92
960.217	980.47
960.499	971.95
960.782	961.32
961.064	955.11
961.346	949.81
961.629	937.42
961.911	930.19
962.193	924.38
962.475	914.27
962.757	912.84
963.039	912.98
963.32	913.6
963.602	907.98
963.884	903.78
964.165	897.13
964.447	889.26
964.728	877.29
965.01	870.57
965.291	860.51
965.572	858.01
965.853	852.09
966.134	846.17
966.415	843.48
966.696	839.08
966.977	832.24
967.258	826.94
967.539	816.29
967.819	807.23
968.1	800.54
968.38	790.21
968.661	788.03
968.941	782.18
969.222	778.2
969.502	773.81
969.782	775.66
970.062	772.9
970.342	772.37
970.622	769.54
970.902	767.59
971.182	758.09
971.462	748.14
971.741	740.61
972.021	734.09
972.3	728.6
972.58	726.06
972.859	728.3
973.138	730.05
973.418	727.38
973.697	722.39
973.976	716.57
974.255	710.67
974.534	708.18
974.813	700.53
975.092	692.25
975.37	689.06
975.649	683.34
975.928	677.92
976.206	676.78
976.485	673.22
976.763	672.05
977.041	665.61
977.32	662.74
977.598	655.54
977.876	649.2
978.154	642
978.432	640.04
978.71	638.77
978.988	632.58
979.265	630.8
979.543	631.81
979.821	629.7
980.098	625.72
980.376	624.18
980.653	614.19
980.93	609.13
981.208	600.39
981.485	596.88
981.762	596.17
982.039	592.07
982.316	589.4
982.593	586.8
982.87	585.69
983.146	580.82
983.423	577.03
983.7	576.72
983.976	571.94
984.253	567.48
984.529	564.22
984.805	560.26
985.082	556.68
985.358	552.62
985.634	549.63
985.91	545.32
986.186	549.8
986.462	547.7
986.738	542.57
987.013	543.02
987.289	538.75
987.565	534.55
987.84	529.7
988.116	525.32
988.391	522.82
988.666	518.96
988.942	513.52
989.217	514.91
989.492	514.88
989.767	511.01
990.042	509.46
990.317	503.75
990.592	505.07
990.866	499.25
991.141	496.56
991.416	493.84
991.69	489.38
991.964	489.1
992.239	486.63
992.513	485.03
992.787	483.92
993.062	480.26
993.336	481.39
993.61	480.65
993.884	479.02
994.158	477.14
994.431	471.79
994.705	469.01
994.979	465.65
995.252	462.57
995.526	461.83
995.799	460.75
996.073	458.73
996.346	458.83
996.619	456.47
996.892	455.37
997.165	450.99
997.438	449.03
997.711	448.09
997.984	443.2
998.257	441.16
998.53	439.94
998.802	437.82
999.075	438.18
999.347	435.47
999.62	434.44
999.892	431.49
1000.165	430.1
1000.437	430.05
1000.709	426.6
1000.981	426.96
1001.253	422.54
1001.525	422.39
1001.797	419.85
1002.068	419.85
1002.34	416.86
1002.612	416.26
1002.883	415.29
1003.155	414.69
1003.426	413.65
1003.698	412.47
1003.969	410.48
1004.24	409.61
1004.511	409.21
1004.782	406.96
1005.053	406.63
1005.324	403.53
1005.595	401.24
1005.866	401.81
1006.136	398.6
1006.407	399.66
1006.678	398.15
1006.948	396.07
1007.218	394.34
1007.489	393.31
1007.759	391.57
1008.029	392.17
1008.299	391.57
1008.569	392.53
1008.839	389.9
1009.109	389.17
1009.379	385.93
1009.649	386.41
1009.918	386.76
1010.188	385.77
1010.458	383.34
1010.727	383.95
1010.996	384.77
1011.266	382.42
1011.535	379.82
1011.804	380.44
1012.073	378.3
1012.342	379.36
1012.611	376.87
1012.88	377.17
1013.149	375.53
1013.417	373.69
1013.686	374.91
1013.955	375.94
1014.223	375.7
1014.492	371.98
1014.76	372.82
1015.028	371.37
1015.296	371.34
1015.565	369.18
1015.833	369.78
1016.101	369.29
1016.368	368.04
1016.636	367.67
1016.904	369
1017.172	368.12
1017.439	366
1017.707	366.63
1017.974	365.08
1018.242	365.67
1018.509	365.63
1018.776	362.34
1019.044	363.25
1019.311	363.68
1019.578	363.98
1019.845	362.1
1020.112	362.14
1020.378	362.14
1020.645	362.14
