Data from 190626_Kr_41K_no_film_FLMS138901_12-38-05-094.txt Node
Date: Wed Jun 26 12:38:05 EDT 2019
User: pSAM
Spectrometer: FLMS13890
Trigger mode: 0
Integration Time (sec): 5.000000E-3
Scans to average: 1000
Electric dark correction enabled: true
Nonlinearity correction enabled: false
Boxcar width: 0
XAxis mode: Wavelengths
Number of Pixels in Spectrum: 2048
>>>>>Begin Spectral Data<<<<<
342.097	-57.63
342.483	-57.63
342.868	-57.63
343.254	-100.62
343.639	-104.4
344.025	-102.35
344.41	-98.05
344.796	-91.47
345.181	-82.5
345.567	-67.45
345.952	-52.61
346.337	-36.39
346.722	-19.58
347.107	-1.04
347.493	18.26
347.878	40.49
348.263	57.82
348.648	79.16
349.033	98.85
349.418	119.02
349.802	137.83
350.187	153.66
350.572	172.43
350.957	232.1
351.342	353.88
351.726	378.87
352.111	393.97
352.495	408.5
352.88	422.25
353.264	436.15
353.649	449.13
354.033	460.98
354.418	472.03
354.802	479.22
355.186	485.06
355.57	495.2
355.955	502.67
356.339	507.27
356.723	513.12
357.107	517.82
357.491	535.75
357.875	523.59
358.259	524.65
358.643	527.16
359.026	532.02
359.41	532.46
359.794	531.55
360.178	534.58
360.561	534.37
360.945	533.41
361.329	533.12
361.712	533.69
362.096	536.06
362.479	535.36
362.862	535.93
363.246	532.68
363.629	533.77
364.012	531.7
364.396	532.15
364.779	534.18
365.162	533.07
365.545	535.44
365.928	535.09
366.311	535.9
366.694	538.04
367.077	539.75
367.46	538.8
367.843	541.83
368.226	542.38
368.608	544.72
368.991	546.2
369.374	546.75
369.756	548.3
370.139	546.55
370.521	547.87
370.904	549.84
371.286	549.63
371.669	552.48
372.051	551.34
372.433	557.48
372.816	556.32
373.198	557.71
373.58	558.98
373.962	560.79
374.344	562.64
374.726	566.78
375.108	566.82
375.49	571.34
375.872	571.87
376.254	570.72
376.636	573.32
377.018	571.83
377.399	574.02
377.781	577.46
378.163	581.59
378.544	582.71
378.926	587.65
379.307	593.16
379.689	598.5
380.07	596.5
380.452	602.07
380.833	602.15
381.214	603.93
381.596	611.03
381.977	615.91
382.358	618.81
382.739	625.17
383.12	627.36
383.501	627.55
383.882	629.68
384.263	636.7
384.644	630.5
385.025	636.97
385.406	636.28
385.787	640.8
386.167	645.24
386.548	646.05
386.929	655.02
387.309	661.79
387.69	670.64
388.07	680.13
388.451	682.71
388.831	685.83
389.211	683.64
389.592	674.84
389.972	672.4
390.352	678.83
390.733	681.01
391.113	680.02
391.493	685.12
391.873	694.25
392.253	701.75
392.633	715.26
393.013	720.26
393.393	723.55
393.772	720.84
394.152	726.67
394.532	723.45
394.912	731.09
395.291	724.74
395.671	729.33
396.05	725.53
396.43	726.83
396.809	727.82
397.189	735.65
397.568	743.45
397.948	749.53
398.327	755.6
398.706	763.86
399.085	767.61
399.465	766.39
399.844	763.93
400.223	753.71
400.602	758.33
400.981	757.55
401.36	756.57
401.739	756.96
402.117	766.49
402.496	758.91
402.875	761.47
403.254	774.12
403.632	774.14
404.011	778.84
404.39	791.73
404.768	794.42
405.147	806.18
405.525	813.95
405.903	817.53
406.282	821.72
406.66	817.24
407.038	809.02
407.417	805.23
407.795	805.38
408.173	808.72
408.551	811.73
408.929	816.74
409.307	821.11
409.685	828.81
410.063	830.33
410.441	831.9
410.818	834.68
411.196	836.8
411.574	846.92
411.952	848
412.329	861.32
412.707	879.74
413.084	887.66
413.462	889.23
413.839	892.67
414.217	881.63
414.594	884.95
414.971	888.01
415.349	890.76
415.726	895.18
416.103	887.07
416.48	890.23
416.857	896.13
417.234	905.03
417.611	908.21
417.988	910.29
418.365	902.35
418.742	909.02
419.119	914.1
419.495	915.38
419.872	917.89
420.249	938.26
420.625	948.01
421.002	961.34
421.379	968.94
421.755	988.15
422.131	1001.43
422.508	1002.26
422.884	1009.55
423.26	1017.88
423.637	1028.43
424.013	1003.16
424.389	998.42
424.765	991.96
425.141	994.88
425.517	988.43
425.893	987.86
426.269	985.59
426.645	990.87
427.021	1021.42
427.397	1032.64
427.772	1047.25
428.148	1045.81
428.524	1047.91
428.899	1038.6
429.275	1048.73
429.651	1064.04
430.026	1081.12
430.401	1094.45
430.777	1094.96
431.152	1091.1
431.527	1081.49
431.903	1079.99
432.278	1076.6
432.653	1077.81
433.028	1087.45
433.403	1115.22
433.778	1142.91
434.153	1141.79
434.528	1137.78
434.903	1132.87
435.278	1142.36
435.653	1148.46
436.027	1148.67
436.402	1156.08
436.777	1166.8
437.151	1173.35
437.526	1182.24
437.9	1187.02
438.275	1202.59
438.649	1199.33
439.023	1208.69
439.398	1207.43
439.772	1205.7
440.146	1211.26
440.52	1229.46
440.895	1249.93
441.269	1284.2
441.643	1303.92
442.017	1306.25
442.391	1301.86
442.765	1299.12
443.138	1290.74
443.512	1302.69
443.886	1309.26
444.26	1317.49
444.633	1324.73
445.007	1324.91
445.38	1325.44
445.754	1331.1
446.127	1342.79
446.501	1336.64
446.874	1333.35
447.248	1330.68
447.621	1342.2
447.994	1335.96
448.367	1343.05
448.741	1348.28
449.114	1336.47
449.487	1359.33
449.86	1363
450.233	1365.23
450.606	1359.75
450.978	1357.99
451.351	1377.24
451.724	1360.14
452.097	1360.75
452.469	1368.65
452.842	1367.79
453.215	1376.77
453.587	1381
453.96	1384.15
454.332	1384.36
454.704	1403.52
455.077	1407.2
455.449	1422.01
455.821	1417.4
456.194	1440.39
456.566	1439.33
456.938	1458.21
457.31	1472.71
457.682	1499.53
458.054	1509.24
458.426	1526.31
458.798	1537.21
459.17	1548.6
459.541	1547.13
459.913	1529.85
460.285	1533.17
460.656	1530.58
461.028	1527.33
461.399	1548.15
461.771	1542.28
462.142	1555.06
462.514	1573.71
462.885	1593.23
463.256	1626.56
463.628	1645.78
463.999	1676.27
464.37	1711.12
464.741	1718.44
465.112	1706.32
465.483	1720.43
465.854	1729.97
466.225	1721.64
466.596	1717.11
466.967	1737.89
467.338	1736.16
467.708	1765.37
468.079	1771.63
468.45	1789.54
468.82	1796.02
469.191	1805.52
469.561	1799.39
469.932	1812.22
470.302	1802.12
470.673	1833.62
471.043	1846.96
471.413	1873.53
471.783	1900.58
472.154	1934.53
472.524	1958.08
472.894	2005.09
473.264	2036.67
473.634	2035.72
474.004	2043.37
474.374	2076.41
474.743	2091.26
475.113	2136.27
475.483	2156.75
475.853	2187.32
476.222	2206.68
476.592	2246.5
476.961	2243.35
477.331	2267.74
477.7	2296.57
478.07	2348.48
478.439	2372.62
478.808	2397.73
479.178	2406.81
479.547	2457.7
479.916	2470.5
480.285	2529.3
480.654	2543.73
481.023	2582.48
481.392	2607.35
481.761	2635.02
482.13	2668.4
482.499	2705.66
482.867	2733.59
483.236	2793.42
483.605	2857.92
483.973	2889.94
484.342	2955.6
484.71	2988.92
485.079	3086.86
485.447	3489.54
485.816	3867.13
486.184	4054.83
486.552	3834.92
486.921	3547.91
487.289	3349.13
487.657	3286.33
488.025	3256.59
488.393	3268.43
488.761	3303.35
489.129	3349.3
489.497	3377.09
489.865	3451.51
490.233	3475.74
490.6	3535.89
490.968	3519.56
491.336	3540.18
491.703	3556.8
492.071	3595.53
492.438	3624.53
492.806	3670.76
493.173	3737.06
493.541	3761.4
493.908	3770.56
494.275	3781.11
494.642	3790.62
495.01	3802.93
495.377	3803.71
495.744	3837.16
496.111	3919.44
496.478	3980.52
496.845	3991.42
497.211	3996.01
497.578	4011.07
497.945	4035.59
498.312	4099.49
498.678	4149.08
499.045	4202.99
499.412	4209.64
499.778	4208.71
500.145	4210.09
500.511	4220.11
500.878	4277.01
501.244	4340.28
501.61	4373.24
501.976	4365.49
502.343	4391.64
502.709	4449.36
503.075	4449.77
503.441	4451.35
503.807	4466.42
504.173	4459.85
504.539	4487.47
504.905	4523.73
505.27	4548.86
505.636	4583.56
506.002	4640.12
506.367	4634.77
506.733	4659.76
507.099	4650.7
507.464	4678.75
507.829	4695.83
508.195	4743.08
508.56	4774.59
508.926	4777.96
509.291	4782.35
509.656	4809.84
510.021	4831.11
510.386	4848.19
510.751	4870.72
511.116	4910.15
511.481	4941.52
511.846	4981.05
512.211	4975.88
512.576	4996.24
512.941	5005.32
513.305	5017.75
513.67	5047.41
514.035	5058.63
514.399	5097.48
514.764	5094.22
515.128	5122.59
515.493	5138.49
515.857	5182.98
516.221	5183.64
516.585	5221.66
516.95	5245.47
517.314	5258.87
517.678	5265.22
518.042	5285.13
518.406	5342.35
518.77	5350.5
519.134	5365.92
519.498	5410.3
519.862	5426.84
520.225	5410.59
520.589	5458.32
520.953	5483.9
521.316	5513.13
521.68	5522.91
522.043	5561.44
522.407	5553.32
522.77	5568
523.134	5644.46
523.497	5635.73
523.86	5674.14
524.223	5685.51
524.587	5721.36
524.95	5724.38
525.313	5785.79
525.676	5823.37
526.039	5842.62
526.402	5843.66
526.765	5907.77
527.127	5950.7
527.49	5977.11
527.853	5987.82
528.215	5998.91
528.578	6066.51
528.941	6076.9
529.303	6122.99
529.666	6154.57
530.028	6187.47
530.39	6216.03
530.753	6213.02
531.115	6245.38
531.477	6303.49
531.839	6340.67
532.201	6364.65
532.564	6410.09
532.926	6459.34
533.287	6553.36
533.649	6577.8
534.011	6613.77
534.373	6658.88
534.735	6709.1
535.097	6717.67
535.458	6766.67
535.82	6817.05
536.181	6837.51
536.543	6854.19
536.904	6811.69
537.266	6908.79
537.627	6949.28
537.988	6983.6
538.35	7007.33
538.711	7077.79
539.072	7136.32
539.433	7127.5
539.794	7181.36
540.155	7209.06
540.516	7254.72
540.877	7306.38
541.238	7345.13
541.599	7397.62
541.959	7438.18
542.32	7512.99
542.681	7551.67
543.041	7553.13
543.402	7576.81
543.762	7631.58
544.123	7641.06
544.483	7689.22
544.844	7749.37
545.204	7758.77
545.564	7775.71
545.924	7785.68
546.284	7815.82
546.644	7825.5
547.004	7894.16
547.364	7948.2
547.724	8010.29
548.084	8016.45
548.444	8084.63
548.804	8084.93
549.164	8107.41
549.523	8113.36
549.883	8135.1
550.242	8163
550.602	8198.94
550.961	8208.27
551.321	8200.56
551.68	8261.73
552.04	8279
552.399	8359.06
552.758	8385.75
553.117	8366.97
553.476	8466.44
553.835	8539.14
554.194	8556.84
554.553	8519.27
554.912	8537.32
555.271	8619.61
555.63	8661.81
555.989	8723.96
556.347	8697.57
556.706	8719.4
557.065	8703.39
557.423	8763.57
557.782	8803.63
558.14	8805.76
558.499	8846.43
558.857	8871.69
559.215	8874.59
559.573	8897.76
559.932	8966.87
560.29	9053.43
560.648	9064.62
561.006	9104.66
561.364	9133.55
561.722	9149.2
562.08	9214.91
562.438	9167.01
562.795	9235.1
563.153	9273.2
563.511	9268.63
563.868	9322.71
564.226	9370.93
564.583	9447.13
564.941	9412
565.298	9458.83
565.656	9442.62
566.013	9467.39
566.37	9528.04
566.727	9583.85
567.085	9695.07
567.442	9809.37
567.799	9880.59
568.156	9942.04
568.513	10018.51
568.87	10131.45
569.226	10275.42
569.583	10466.37
569.94	10567.6
570.297	10650.84
570.653	10628.55
571.01	10699.35
571.366	10897.17
571.723	10991.07
572.079	10989.08
572.436	10981.26
572.792	10982.15
573.148	11155.48
573.505	11299.64
573.861	11577.9
574.217	11627.06
574.573	11648.93
574.929	11626.49
575.285	11644.7
575.641	11717.58
575.997	11748.97
576.352	11838.64
576.708	11903.72
577.064	12080.64
577.42	12345.55
577.775	12579.49
578.131	12679.12
578.486	12536.63
578.842	12207.86
579.197	12200.48
579.552	12307.23
579.908	12550.22
580.263	12784.71
580.618	12642.1
580.973	12746.03
581.328	13172.58
581.683	13743.58
582.038	14063.23
582.393	13555.42
582.748	13048.74
583.103	12607.47
583.458	12341.03
583.812	12364.09
584.167	12594.47
584.522	12810.91
584.876	13007.78
585.231	13137.63
585.585	13170.74
585.939	12993.07
586.294	12900.4
586.648	12789.8
587.002	12721.12
587.356	12925.46
587.711	13192.78
588.065	13249.09
588.419	13308.61
588.773	13214.79
589.127	12958.96
589.48	12840.88
589.834	12569.14
590.188	12550.04
590.542	12594.17
590.895	12521.81
591.249	12613.38
591.603	12553.47
591.956	12563.29
592.309	12695.72
592.663	12913.62
593.016	13205.15
593.369	13407.15
593.723	13309.12
594.076	13204.24
594.429	13156.15
594.782	13298.07
595.135	13521.32
595.488	13608.2
595.841	13509.14
596.194	13342.18
596.547	13185.06
596.899	13126.75
597.252	13172.6
597.605	13225.19
597.957	13178.66
598.31	13306.2
598.662	13382.32
599.015	13411.91
599.367	13505.35
599.719	13453.49
600.072	13440.62
600.424	13453.48
600.776	13613.76
601.128	13647.09
601.48	13660.39
601.832	13700.14
602.184	13726.6
602.536	13811.28
602.888	14003.92
603.24	14227.31
603.592	14349.41
603.943	14249.72
604.295	14136.83
604.646	13903.81
604.998	13829.72
605.349	13893.58
605.701	13945.76
606.052	14000.7
606.404	14009.4
606.755	14012.53
607.106	14060.94
607.457	14039.63
607.808	14071
608.159	14062.33
608.51	14058.31
608.861	14034.56
609.212	14005.36
609.563	14117.94
609.914	14190.95
610.265	14206.88
610.615	14402.66
610.966	14392.43
611.316	14413.53
611.667	14478.64
612.017	14508.37
612.368	14301.08
612.718	14489.77
613.068	14539.5
613.419	14645.13
613.769	14624.31
614.119	14618.21
614.469	14681.1
614.819	14478.17
615.169	14525.89
615.519	14661.28
615.869	14687.37
616.219	14637.53
616.568	14512.52
616.918	14431.71
617.268	14579.84
617.617	14647.45
617.967	14684.03
618.316	14596.85
618.666	14564.62
619.015	14532.03
619.364	14528.49
619.714	14688.89
620.063	14763.13
620.412	14778.89
620.761	14787.51
621.11	14731.29
621.459	14587.8
621.808	14684.29
622.157	14836.7
622.506	14887.74
622.855	15009.57
623.203	15029.83
623.552	15060.57
623.901	15181.9
624.249	15097.95
624.598	15151.97
624.946	15136.37
625.295	15105.73
625.643	14993.05
625.991	15084.44
626.34	15028.65
626.688	15044.85
627.036	15127.11
627.384	15101.3
627.732	15173.04
628.08	15198.67
628.428	15210.92
628.776	15222.38
629.124	15228.7
629.471	15281.46
629.819	15321.21
630.167	15303.13
630.514	15372.46
630.862	15246.56
631.209	15284.03
631.557	15403.88
631.904	15437.62
632.251	15462.73
632.599	15460.32
632.946	15449.42
633.293	15450.51
633.64	15411.03
633.987	15426.73
634.334	15450.11
634.681	15489.34
635.028	15532.93
635.375	15479.24
635.722	15555.49
636.068	15665.95
636.415	15764.1
636.762	15773.86
637.108	15846.72
637.455	15843.11
637.801	15857.78
638.147	15952.3
638.494	15905.58
638.84	16031.93
639.186	15917.18
639.532	15876.66
639.878	16016.45
640.225	16028.35
640.571	16089.48
640.916	16120.57
641.262	16149.51
641.608	16114.38
641.954	16118.62
642.3	16129.1
642.645	16078.67
642.991	16172.91
643.337	16276.4
643.682	16351.77
644.028	16302.21
644.373	16245.69
644.718	16239.64
645.064	16292.55
645.409	16272.26
645.754	16322.81
646.099	16419.01
646.444	16457.07
646.789	16490.7
647.134	16490.39
647.479	16603.65
647.824	16613.7
648.169	16605.38
648.513	16678.24
648.858	16674.45
649.203	16697.39
649.547	16671.7
649.892	16697.5
650.236	16748.3
650.581	16710.55
650.925	16674.27
651.269	16749.28
651.613	16827.35
651.958	16795.92
652.302	16866.52
652.646	16771.07
652.99	16646.52
653.334	16829.85
653.678	16885.03
654.022	17012.53
654.365	16919.72
654.709	16896.71
655.053	16962.89
655.396	17495.09
655.74	23106.8
656.083	32167.35
656.427	38376.54
656.77	38985.75
657.114	30312.07
657.457	22888.3
657.8	19364.37
658.143	17952.2
658.486	17466.57
658.83	17344.75
659.173	17215.23
659.516	17188.11
659.858	17146.01
660.201	17062
660.544	16974.84
660.887	17008.49
661.229	17141.33
661.572	17125.53
661.915	17142.28
662.257	17166.33
662.6	17171.07
662.942	17146.48
663.284	17085.32
663.627	17202.76
663.969	17267.33
664.311	17298.53
664.653	17156.76
664.995	17132.43
665.337	17179.12
665.679	17132.69
666.021	17090.31
666.363	16982
666.705	17090.23
667.046	17196.19
667.388	17140.3
667.73	17200.25
668.071	17226.36
668.413	17232.05
668.754	17232.64
669.096	17165.77
669.437	17289.8
669.778	17204.28
670.119	17235.05
670.461	17223.07
670.802	17266.34
671.143	17220.22
671.484	17316.69
671.825	17241.06
672.165	17205.83
672.506	17314.41
672.847	17310.93
673.188	17324.09
673.528	17294.56
673.869	17311.84
674.21	17227.39
674.55	17290.87
674.89	17257.41
675.231	17245.26
675.571	17174.68
675.911	17152.25
676.252	17246.06
676.592	17383.52
676.932	17205.37
677.272	17079.64
677.612	17173.28
677.952	17300.52
678.292	17359.67
678.631	17345.91
678.971	17326.26
679.311	17287.11
679.651	17210.08
679.99	17321.17
680.33	17301.43
680.669	17309.59
681.009	17228.04
681.348	17280.2
681.687	17391.38
682.026	17465.58
682.366	17400.16
682.705	17477.98
683.044	17432.67
683.383	17372.54
683.722	17450.11
684.061	17333.12
684.4	17365.54
684.738	17371.03
685.077	17480.87
685.416	17556.81
685.754	17627.43
686.093	17597.7
686.431	17653.07
686.77	17606.82
687.108	17507.83
687.447	17342.43
687.785	17422.9
688.123	17414.26
688.461	17397.71
688.799	17243.41
689.137	17342.55
689.475	17338.79
689.813	17284.48
690.151	17441.66
690.489	17463.12
690.827	17392.52
691.164	17455.3
691.502	17357.14
691.84	17380.73
692.177	17396.41
692.515	17385.11
692.852	17322.98
693.189	17426.65
693.527	17356.41
693.864	17351.08
694.201	17342.87
694.538	17268.11
694.875	17249.22
695.212	17246.57
695.549	17322.23
695.886	17340.57
696.223	17366.63
696.56	17358.38
696.897	17182.44
697.233	17198.29
697.57	17352.19
697.906	17614.05
698.243	17667.26
698.579	17479.39
698.916	17469.41
699.252	17237.56
699.588	17289.18
699.924	17364.43
700.261	17290.04
700.597	17270.73
700.933	17240.18
701.269	17163.88
701.605	17175.48
701.941	17118.36
702.276	17197.87
702.612	17107.1
702.948	17241.03
703.283	17252.68
703.619	17227.47
703.954	17263.77
704.29	17232.11
704.625	17314.11
704.961	17288.57
705.296	17373.3
705.631	17232.16
705.966	17181.18
706.301	17125.13
706.637	17085.3
706.972	17222.9
707.306	17318.32
707.641	17326.28
707.976	17149.87
708.311	17230.22
708.646	17330.43
708.98	17159.91
709.315	17208.43
709.649	17196.24
709.984	17244.32
710.318	17091.28
710.653	17095.25
710.987	17065.94
711.321	17141.55
711.655	17138.43
711.989	17113.35
712.324	16991.74
712.658	16954.3
712.992	17041.1
713.325	16996.99
713.659	17014.63
713.993	16906.21
714.327	17039.64
714.66	17144.57
714.994	17061.93
715.328	17073.47
715.661	17129.68
715.994	17124.1
716.328	16967.09
716.661	16936.33
716.994	16940.73
717.328	16773.52
717.661	16805.19
717.994	16865.94
718.327	16828.44
718.66	16781.83
718.993	16828.16
719.325	16878.34
719.658	16986.64
719.991	17037.97
720.324	16979.94
720.656	16858.46
720.989	16808.75
721.321	16689.98
721.654	16620.9
721.986	16558.41
722.318	16536.62
722.651	16583.31
722.983	16462.25
723.315	16568.17
723.647	16563.08
723.979	16585.31
724.311	16600.31
724.643	16536.79
724.975	16489.85
725.307	16430.07
725.638	16579.57
725.97	16519.6
726.302	16620.82
726.633	16485.99
726.965	16578.91
727.296	16512.68
727.628	16450.36
727.959	16411.45
728.29	16439.21
728.621	16249.9
728.952	16324.72
729.284	16254.81
729.615	16211.32
729.945	16128.28
730.276	16153.49
730.607	16318.17
730.938	16256.1
731.269	16220.02
731.599	16167.96
731.93	16188.24
732.261	16132.35
732.591	16191
732.922	16133.91
733.252	16074.46
733.582	16050.19
733.912	15956.77
734.243	15858.92
734.573	15868.78
734.903	16048.46
735.233	15856.19
735.563	15767.9
735.893	15771.25
736.223	15789.06
736.552	15754.82
736.882	15636.03
737.212	15647.57
737.541	15689.47
737.871	15622.76
738.2	15563.6
738.53	15440.4
738.859	15244.06
739.188	15250.81
739.518	15359.75
739.847	15452.39
740.176	15309.88
740.505	15363.86
740.834	15284.96
741.163	15171.89
741.492	15120.83
741.821	15123.81
742.15	15104.88
742.478	15071.97
742.807	14907.73
743.136	15051.9
743.464	15017.85
743.793	14995.23
744.121	15011.54
744.449	14838.59
744.778	14726.09
745.106	14721.54
745.434	14634.25
745.762	14565.45
746.09	14555.56
746.418	14584.55
746.746	14520.22
747.074	14460.16
747.402	14518.5
747.73	14474.25
748.057	14499.92
748.385	14409.17
748.712	14306.93
749.04	14290.36
749.367	14248.31
749.695	14118.94
750.022	14141.32
750.349	14070.25
750.677	14052.27
751.004	14047.57
751.331	13971.23
751.658	13977.82
751.985	13982.14
752.312	13822.68
752.639	13798.82
752.966	13703.57
753.292	13596.06
753.619	13759.15
753.946	13762.07
754.272	13671.39
754.599	13744.86
754.925	13700.75
755.251	13590.16
755.578	13494.16
755.904	13370.45
756.23	13314.74
756.556	13420.43
756.882	13551.87
757.208	13433.39
757.534	13412.22
757.86	13554.56
758.186	13568.32
758.512	13488.08
758.838	13439.89
759.163	13371.85
759.489	13295.51
759.814	13268.13
760.14	13346.66
760.465	13289.44
760.791	13111.61
761.116	13027.25
761.441	12993.43
761.766	12985.87
762.092	12873.32
762.417	12712.42
762.742	12575.95
763.066	12594.83
763.391	12672.04
763.716	12776.62
764.041	12821.58
764.366	12740.49
764.69	12603.35
765.015	12604.36
765.339	12689.96
765.664	12733.08
765.988	12601.6
766.312	12466.17
766.637	12362.6
766.961	12389.5
767.285	12414.95
767.609	12218.96
767.933	12091.41
768.257	12117.63
768.581	12007.58
768.905	12128.78
769.229	12079.41
769.552	12028.05
769.876	12121.92
770.2	12044.31
770.523	11971.86
770.847	11844.23
771.17	11861.67
771.493	11921.4
771.817	11951.05
772.14	11874.11
772.463	11728.48
772.786	11629.75
773.109	11530.99
773.432	11531.06
773.755	11421.47
774.078	11244.72
774.401	11253.04
774.724	11238.5
775.046	11243.89
775.369	11118.21
775.692	11126.61
776.014	11104.55
776.336	11080.5
776.659	11076.46
776.981	11081.78
777.303	11053.02
777.626	10982.58
777.948	11009.76
778.27	10997.2
778.592	11089.64
778.914	11037.36
779.236	10932.86
779.557	10920.48
779.879	10945.95
780.201	10891.23
780.523	10928.75
780.844	10879.52
781.166	10830.45
781.487	10821.77
781.809	10871.17
782.13	10932.13
782.451	10906.11
782.772	10955.13
783.094	10852.26
783.415	10886.41
783.736	10917.08
784.057	10997.94
784.378	10965.51
784.698	10841.59
785.019	10850.97
785.34	10671.5
785.661	10793.35
785.981	10940.32
786.302	11087.01
786.622	11085.55
786.943	11099.83
787.263	10967.49
787.583	10961.28
787.903	11038.3
788.224	10999.82
788.544	11132.46
788.864	11137.67
789.184	11277.39
789.504	11288.97
789.824	11267.96
790.143	11237.94
790.463	11125.7
790.783	10959.86
791.102	10997
791.422	11024.48
791.741	10986.15
792.061	11055.31
792.38	11047.7
792.699	10918.25
793.019	10845.69
793.338	10773.94
793.657	10787.71
793.976	10935.92
794.295	11067.62
794.614	11119.94
794.933	10966.12
795.252	10965.2
795.57	10899.24
795.889	10918.83
796.208	10925.77
796.526	10712.25
796.845	10668.06
797.163	10628.4
797.482	10666.82
797.8	10649.39
798.118	10638.23
798.436	10648.46
798.754	10615.42
799.073	10497.02
799.391	10486.04
799.708	10511.61
800.026	10580.8
800.344	10456.38
800.662	10390.56
800.98	10358.46
801.297	10395.83
801.615	10376.21
801.932	10406.42
802.25	10346.86
802.567	10257.33
802.884	10207.52
803.202	10150.83
803.519	10060.27
803.836	10097.21
804.153	10167.64
804.47	10179.31
804.787	10142.78
805.104	10031.13
805.421	10083.24
805.737	10103.13
806.054	10019.23
806.371	9987.51
806.687	10014
807.004	9979.59
807.32	9895.35
807.637	9869.88
807.953	9884.03
808.269	9847.41
808.585	9843.94
808.902	9715.99
809.218	9624.13
809.534	9576.91
809.85	9461.64
810.165	9459.95
810.481	9472.91
810.797	9435.59
811.113	9401
811.428	9331.15
811.744	9315.52
812.059	9334.83
812.375	9315.39
812.69	9276.09
813.006	9193.52
813.321	9246.89
813.636	9215.88
813.951	9246.63
814.266	9212.27
814.581	9216.8
814.896	9174.83
815.211	9137.97
815.526	9070.92
815.841	9035.5
816.155	9071.62
816.47	9126.4
816.784	9112.45
817.099	9004.1
817.413	8892.16
817.728	8944.82
818.042	8914.9
818.356	8891.89
818.67	8824.41
818.985	8803.96
819.299	8715.13
819.613	8745.52
819.926	8641.23
820.24	8659.37
820.554	8677.71
820.868	8749.75
821.182	8634.68
821.495	8628.92
821.809	8507.82
822.122	8461.47
822.436	8459.3
822.749	8485.33
823.062	8455.99
823.376	8385.21
823.689	8221.93
824.002	8183.33
824.315	8130.87
824.628	8175.69
824.941	8162.32
825.254	8198.51
825.566	8141.86
825.879	8164.62
826.192	8037.61
826.504	7990.87
826.817	8035.64
827.129	8000.92
827.442	7943.5
827.754	7973.39
828.066	7983.9
828.379	7826.97
828.691	7787.62
829.003	7760.44
829.315	7813.64
829.627	7783.02
829.939	7687.68
830.251	7663.14
830.562	7642.09
830.874	7675.37
831.186	7635.11
831.497	7691.76
831.809	7640.6
832.12	7538.27
832.432	7461.44
832.743	7463.2
833.054	7433.36
833.365	7436.83
833.676	7489.89
833.988	7528.65
834.299	7454.12
834.61	7320
834.92	7324.43
835.231	7353.2
835.542	7336.93
835.853	7289.18
836.163	7268.07
836.474	7234.25
836.784	7137.88
837.095	7081.7
837.405	7091.98
837.715	7126.44
838.026	7092.62
838.336	7010
838.646	6984.6
838.956	6925.46
839.266	6869.51
839.576	6805.42
839.886	6803.02
840.195	6887.01
840.505	6884.68
840.815	6863.77
841.124	6757.98
841.434	6710.13
841.743	6655.6
842.053	6644.77
842.362	6580.08
842.671	6568.61
842.981	6607.72
843.29	6553.77
843.599	6536.72
843.908	6516.27
844.217	6438.36
844.526	6466.91
844.835	6426.63
845.143	6392.28
845.452	6385.19
845.761	6369.63
846.069	6305.39
846.378	6341.52
846.686	6317.99
846.995	6291.46
847.303	6273.59
847.611	6245.48
847.919	6204.41
848.227	6157.3
848.535	6105.15
848.843	6080.48
849.151	6028.93
849.459	6046.96
849.767	5974.76
850.075	5935.65
850.382	5847.39
850.69	5820.47
850.998	5795.67
851.305	5779.85
851.612	5828.3
851.92	5835.18
852.227	5810.19
852.534	5779.76
852.841	5752.25
853.148	5770.85
853.455	5827.77
853.762	5865.1
854.069	5838.85
854.376	5806.31
854.683	5752.13
854.99	5650.13
855.296	5593.14
855.603	5527.26
855.909	5522.08
856.216	5535.95
856.522	5557.3
856.828	5527.06
857.135	5477.48
857.441	5421.94
857.747	5345.35
858.053	5281.01
858.359	5217.5
858.665	5279.41
858.971	5293.21
859.276	5271.72
859.582	5233.94
859.888	5215.59
860.193	5172.09
860.499	5170.6
860.804	5183.16
861.11	5160.87
861.415	5150.48
861.72	5108.94
862.026	5006.98
862.331	4999.67
862.636	4995.2
862.941	4968.67
863.246	4931.91
863.551	4950.83
863.855	4924.85
864.16	4899.68
864.465	4897.99
864.769	4896.26
865.074	4852.57
865.378	4794.42
865.683	4762.65
865.987	4779.49
866.291	4749.36
866.596	4725.81
866.9	4669.39
867.204	4645.47
867.508	4622.5
867.812	4624.03
868.116	4614.19
868.42	4581.57
868.723	4536.23
869.027	4505.35
869.331	4489.39
869.634	4465.28
869.938	4396.82
870.241	4438.93
870.544	4415.12
870.848	4379.92
871.151	4339.52
871.454	4305.41
871.757	4270.88
872.06	4205.37
872.363	4147.65
872.666	4170.79
872.969	4169.19
873.272	4160.42
873.574	4141.53
873.877	4118.79
874.18	4099.95
874.482	4090.97
874.785	4077.12
875.087	4030.24
875.389	4074.17
875.692	4087.49
875.994	4073.64
876.296	4063.81
876.598	4029.14
876.9	3954.31
877.202	3901.62
877.504	3887.66
877.805	3899.26
878.107	3900.5
878.409	3858.75
878.71	3862.57
879.012	3849.46
879.313	3801.73
879.615	3796.76
879.916	3764.31
880.217	3753.94
880.518	3755.09
880.82	3723.64
881.121	3691.14
881.422	3658.85
881.723	3636.03
882.023	3582.88
882.324	3545.54
882.625	3509.7
882.926	3524.32
883.226	3545.37
883.527	3499.16
883.827	3492.66
884.128	3479.61
884.428	3460.13
884.728	3408.69
885.028	3378.91
885.328	3386.02
885.629	3381.44
885.929	3389.51
886.228	3376.19
886.528	3342.42
886.828	3303.27
887.128	3262.17
887.427	3240.01
887.727	3224.38
888.027	3205.24
888.326	3201.77
888.625	3206.8
888.925	3173.17
889.224	3168.14
889.523	3137.92
889.822	3112.67
890.121	3089.92
890.42	3083.47
890.719	3087.45
891.018	3066.98
891.317	3094.63
891.616	3107.47
891.914	3077.62
892.213	3040.81
892.512	3011.4
892.81	2979.53
893.108	2967.92
893.407	2980.48
893.705	2978.45
894.003	2967.13
894.301	2953.31
894.599	2936.31
894.897	2948.35
895.195	2944.94
895.493	2929.02
895.791	2928.31
896.089	2944.72
896.386	2951.5
896.684	2966.46
896.981	2964.53
897.279	2957.75
897.576	2952.49
897.874	2907.8
898.171	2922.57
898.468	2932.34
898.765	2911.34
899.062	2920.6
899.359	2921.35
899.656	2933.27
899.953	2917.55
900.25	2906.68
900.547	2866
900.843	2843.16
901.14	2852.54
901.436	2875.17
901.733	2887.05
902.029	2886.56
902.325	2897.99
902.622	2859.77
902.918	2855.86
903.214	2865.27
903.51	2860.3
903.806	2872.19
904.102	2858.84
904.398	2848.97
904.694	2827.9
904.989	2853.58
905.285	2839.17
905.581	2815.82
905.876	2805.08
906.171	2793.04
906.467	2781.28
906.762	2799.11
907.057	2811.5
907.353	2816.31
907.648	2777.64
907.943	2759.47
908.238	2738.72
908.533	2715.95
908.827	2717.47
909.122	2717.7
909.417	2733.76
909.711	2752.89
910.006	2747.66
910.301	2717.24
910.595	2715.8
910.889	2726.14
911.184	2689.28
911.478	2684.93
911.772	2687.43
912.066	2665.58
912.36	2648.74
912.654	2634.27
912.948	2625.7
913.242	2643.41
913.536	2623.57
913.829	2600.51
914.123	2578.72
914.416	2547.74
914.71	2547.05
915.003	2558.64
915.297	2548.68
915.59	2548.19
915.883	2544.9
916.176	2545.04
916.469	2529.56
916.762	2507.31
917.055	2490.32
917.348	2484.87
917.641	2505
917.934	2512.4
918.226	2501.42
918.519	2473.87
918.811	2453.16
919.104	2438.19
919.396	2405.78
919.689	2376.18
919.981	2354.22
920.273	2346.21
920.565	2351.71
920.857	2329.3
921.149	2326.3
921.441	2323.77
921.733	2306.02
922.025	2280.31
922.316	2248.32
922.608	2235.79
922.9	2220.95
923.191	2217.22
923.483	2221.27
923.774	2203.62
924.065	2195.34
924.357	2185.97
924.648	2165.6
924.939	2146.23
925.23	2117.24
925.521	2097.79
925.812	2080.37
926.102	2071.61
926.393	2071.55
926.684	2084.2
926.975	2080.53
927.265	2067.98
927.556	2059.77
927.846	2031.82
928.136	2007.69
928.427	1994.56
928.717	1978.05
929.007	1969.73
929.297	1954.08
929.587	1950.19
929.877	1948.23
930.167	1947.24
930.457	1933.38
930.746	1903.56
931.036	1879.21
931.325	1856.08
931.615	1836
931.904	1841.2
932.194	1830.93
932.483	1835.59
932.772	1842.99
933.062	1834.17
933.351	1825.47
933.64	1803.35
933.929	1797.52
934.218	1780.95
934.506	1766.38
934.795	1747.92
935.084	1741.85
935.372	1732.53
935.661	1726.01
935.949	1716.35
936.238	1709.97
936.526	1686.14
936.815	1672.26
937.103	1657.57
937.391	1642.63
937.679	1633.58
937.967	1624.71
938.255	1613.03
938.543	1610.26
938.831	1595.41
939.118	1589.11
939.406	1574.02
939.693	1548.84
939.981	1525.03
940.268	1510.17
940.556	1494.26
940.843	1489.07
941.13	1488.07
941.418	1488.28
941.705	1478.22
941.992	1469.75
942.279	1451.19
942.566	1433.22
942.852	1415.27
943.139	1412.13
943.426	1403.43
943.712	1403.02
943.999	1398.44
944.285	1401.48
944.572	1399.23
944.858	1394.59
945.144	1401.91
945.431	1386.65
945.717	1371
946.003	1356
946.289	1327.43
946.575	1311.8
946.861	1304.67
947.146	1295.84
947.432	1293.3
947.718	1284.31
948.003	1275.38
948.289	1268.63
948.574	1254.45
948.86	1235.94
949.145	1225.32
949.43	1213.86
949.715	1210.61
950	1206.8
950.285	1209.44
950.57	1214.25
950.855	1215.59
951.14	1209.55
951.425	1202.51
951.709	1186.4
951.994	1170.49
952.278	1157.73
952.563	1146.13
952.847	1132.74
953.132	1130.12
953.416	1132.92
953.7	1131.03
953.984	1131.61
954.268	1122.32
954.552	1110.86
954.836	1096.89
955.12	1084.07
955.404	1073.29
955.687	1065.64
955.971	1064.02
956.254	1060.55
956.538	1055.86
956.821	1045.19
957.105	1033.27
957.388	1026.05
957.671	1014.8
957.954	1005.08
958.237	994.84
958.52	985.89
958.803	983.41
959.086	980.65
959.369	977.99
959.652	976.75
959.934	973.59
960.217	971.29
960.499	967.41
960.782	958.99
961.064	953.44
961.346	949.17
961.629	939.38
961.911	924.31
962.193	917.58
962.475	912.45
962.757	906.38
963.039	902.29
963.32	900.71
963.602	892.01
963.884	884.7
964.165	877.12
964.447	874.61
964.728	863.35
965.01	857.31
965.291	847.46
965.572	842.61
965.853	840.94
966.134	836.95
966.415	831.01
966.696	828.64
966.977	820.77
967.258	816.6
967.539	810.29
967.819	805.84
968.1	800.89
968.38	795.53
968.661	790.99
968.941	785.56
969.222	784.71
969.502	779.96
969.782	779.09
970.062	774.37
970.342	769.04
970.622	764.28
970.902	755.81
971.182	750.11
971.462	741.92
971.741	737.85
972.021	733.02
972.3	729.16
972.58	728.51
972.859	725.17
973.138	723.37
973.418	722.36
973.697	720.53
973.976	711.31
974.255	704.95
974.534	693.85
974.813	684.94
975.092	680.71
975.37	675.15
975.649	675.66
975.928	672.88
976.206	673.79
976.485	668.63
976.763	664.56
977.041	658.31
977.32	649.82
977.598	644.9
977.876	639.81
978.154	637.78
978.432	634.81
978.71	631.82
978.988	630.3
979.265	632.32
979.543	629.68
979.821	624.33
980.098	621.28
980.376	616.85
980.653	610.68
980.93	607.77
981.208	599.91
981.485	595.29
981.762	592.41
982.039	591.04
982.316	590.44
982.593	590.06
982.87	585.97
983.146	583.94
983.423	576.39
983.7	576.08
983.976	573.7
984.253	568.42
984.529	565
984.805	560.86
985.082	560.72
985.358	557.41
985.634	553.09
985.91	552.36
986.186	549.27
986.462	546.54
986.738	546.67
987.013	541.5
987.289	540.07
987.565	536.91
987.84	527.87
988.116	526.63
988.391	520.1
988.666	518.54
988.942	518.13
989.217	515.38
989.492	513.73
989.767	513.24
990.042	511.07
990.317	506.88
990.592	506.52
990.866	502.66
991.141	498.38
991.416	496.21
991.69	489.73
991.964	487.97
992.239	485.65
992.513	483.04
992.787	484.21
993.062	482.25
993.336	480.38
993.61	478.76
993.884	476.17
994.158	474.04
994.431	471.8
994.705	468.51
994.979	465.09
995.252	463.07
995.526	462.4
995.799	458.05
996.073	457.35
996.346	456.74
996.619	455.94
996.892	454.81
997.165	452.2
997.438	449.17
997.711	449.07
997.984	446.48
998.257	443.84
998.53	442.43
998.802	440.74
999.075	440.81
999.347	439.04
999.62	436.94
999.892	435.46
1000.165	435.73
1000.437	435.45
1000.709	433.87
1000.981	432.71
1001.253	428.69
1001.525	427.47
1001.797	423.96
1002.068	423.66
1002.34	419.56
1002.612	420.71
1002.883	418.69
1003.155	417.86
1003.426	416.28
1003.698	417.37
1003.969	414.73
1004.24	414.16
1004.511	413.29
1004.782	410.52
1005.053	409.75
1005.324	406.42
1005.595	405.89
1005.866	403.88
1006.136	402.97
1006.407	401.43
1006.678	401.03
1006.948	400.02
1007.218	398.59
1007.489	395.95
1007.759	396.2
1008.029	396.55
1008.299	396.56
1008.569	394.13
1008.839	391.45
1009.109	390.35
1009.379	391.38
1009.649	390.19
1009.918	388.13
1010.188	387.87
1010.458	386.77
1010.727	386.68
1010.996	388.04
1011.266	385.27
1011.535	385.82
1011.804	383.78
1012.073	383.7
1012.342	380.68
1012.611	380.3
1012.88	378.6
1013.149	380.83
1013.417	378.68
1013.686	378.71
1013.955	378.12
1014.223	378.11
1014.492	377.46
1014.76	376.59
1015.028	376.09
1015.296	372.91
1015.565	373.8
1015.833	373.76
1016.101	374.41
1016.368	373.43
1016.636	371.4
1016.904	370.97
1017.172	369.56
1017.439	370
1017.707	369.46
1017.974	369.31
1018.242	369.14
1018.509	366.03
1018.776	368.64
1019.044	367.52
1019.311	367.24
1019.578	366.18
1019.845	365.79
1020.112	365.94
1020.378	365.94
1020.645	365.94
