Data from 190524_Kr_39K_dark_FLMS138901_17-07-13-749.txt Node
Date: Thu May 30 17:07:13 EDT 2019
User: pSAM
Spectrometer: FLMS13890
Trigger mode: 0
Integration Time (sec): 4.000000E-3
Scans to average: 1000
Electric dark correction enabled: true
Nonlinearity correction enabled: false
Boxcar width: 0
XAxis mode: Wavelengths
Number of Pixels in Spectrum: 2048
>>>>>Begin Spectral Data<<<<<
342.097	-57.85
342.483	-57.85
342.868	-57.85
343.254	-96.76
343.639	-98.36
344.025	-101.46
344.41	-97.91
344.796	-90
345.181	-78.55
345.567	-65.2
345.952	-50.33
346.337	-34.82
346.722	-17.76
347.107	0.35
347.493	18.35
347.878	37.42
348.263	57.32
348.648	77.31
349.033	96.66
349.418	115.37
349.802	133.27
350.187	152.52
350.572	170.86
350.957	187.33
351.342	204.72
351.726	216.19
352.111	233.36
352.495	245.92
352.88	258.11
353.264	270.41
353.649	279.22
354.033	289.98
354.418	298.83
354.802	305.86
355.186	312.06
355.57	319.46
355.955	323.09
356.339	328.37
356.723	335.96
357.107	333.37
357.491	336.27
357.875	337.55
358.259	342.1
358.643	342.77
359.026	343.06
359.41	341.81
359.794	341.25
360.178	340.31
360.561	340
360.945	337.53
361.329	339.04
361.712	334.66
362.096	334.92
362.479	332.41
362.862	332.25
363.246	330.8
363.629	327.02
364.012	328.33
364.396	323.14
364.779	323.12
365.162	322.34
365.545	321.05
365.928	317.9
366.311	318.59
366.694	317
367.077	316.3
367.46	314.85
367.843	314.01
368.226	313.93
368.608	313.19
368.991	311.23
369.374	312.32
369.756	310.96
370.139	310.23
370.521	311.93
370.904	313.18
371.286	310.04
371.669	309.85
372.051	311.02
372.433	311.15
372.816	311.96
373.198	310.79
373.58	313.82
373.962	312.07
374.344	313.1
374.726	314.74
375.108	314.55
375.49	313.74
375.872	314.09
376.254	314.34
376.636	317.09
377.018	317.99
377.399	317.75
377.781	318.2
378.163	318.71
378.544	320.87
378.926	319.95
379.307	322.62
379.689	318.66
380.07	320.01
380.452	320.78
380.833	321.81
381.214	321.4
381.596	323.01
381.977	322.22
382.358	326.84
382.739	324
383.12	324.19
383.501	325.64
383.882	325.91
384.263	325.89
384.644	326.6
385.025	328.77
385.406	328.12
385.787	327.26
386.167	328.14
386.548	329.57
386.929	328.51
387.309	325.92
387.69	329.7
388.07	328.77
388.451	328.08
388.831	330.95
389.211	330.45
389.592	330.77
389.972	332.21
390.352	330.16
390.733	331.79
391.113	331.99
391.493	332.83
391.873	331.65
392.253	333.98
392.633	330.71
393.013	331.1
393.393	337.04
393.772	333.75
394.152	334.48
394.532	334.79
394.912	335.03
395.291	335.16
395.671	335.18
396.05	334.64
396.43	336.15
396.809	334.47
397.189	336.06
397.568	338.76
397.948	336.86
398.327	335.55
398.706	337.3
399.085	337.85
399.465	338.9
399.844	337.56
400.223	338.04
400.602	338.11
400.981	339.29
401.36	339.14
401.739	339.81
402.117	339.99
402.496	338.93
402.875	339.69
403.254	340.64
403.632	341.88
404.011	342.77
404.39	341.85
404.768	340.78
405.147	345.39
405.525	343.1
405.903	345.39
406.282	343.85
406.66	342.28
407.038	344.28
407.417	344.2
407.795	343.52
408.173	342.93
408.551	344.86
408.929	344.61
409.307	345.72
409.685	345.85
410.063	346.85
410.441	345.89
410.818	346.43
411.196	345.86
411.574	347.09
411.952	347.85
412.329	346.54
412.707	348.17
413.084	347.77
413.462	348.08
413.839	348.15
414.217	348.04
414.594	349.02
414.971	349.1
415.349	349.32
415.726	350.3
416.103	349.22
416.48	349.64
416.857	350
417.234	350.27
417.611	351.74
417.988	351.57
418.365	351.14
418.742	350.66
419.119	351.45
419.495	349.89
419.872	350.88
420.249	355.47
420.625	352.69
421.002	351.62
421.379	349.95
421.755	354.2
422.131	352.24
422.508	352.55
422.884	352.13
423.26	353.62
423.637	355.76
424.013	354.38
424.389	354.65
424.765	355.13
425.141	354.96
425.517	354.65
425.893	357.59
426.269	355.93
426.645	357.71
427.021	355.66
427.397	355.33
427.772	357.58
428.148	356.05
428.524	356.08
428.899	355.43
429.275	354.77
429.651	357.13
430.026	358.5
430.401	357.69
430.777	357.01
431.152	355.67
431.527	358.75
431.903	357.28
432.278	358.77
432.653	359.27
433.028	356.56
433.403	358.47
433.778	359.06
434.153	358.46
434.528	360.37
434.903	360.42
435.278	361.8
435.653	363.41
436.027	362.19
436.402	362
436.777	363.16
437.151	360.17
437.526	362.5
437.9	359.48
438.275	361.02
438.649	360.31
439.023	360.2
439.398	360.86
439.772	359.32
440.146	360.75
440.52	362.13
440.895	361.84
441.269	363
441.643	363.64
442.017	363.48
442.391	363.61
442.765	362.09
443.138	361.59
443.512	361.92
443.886	363.9
444.26	362.74
444.633	364.25
445.007	364.28
445.38	363.86
445.754	363.8
446.127	362.31
446.501	364.64
446.874	366.41
447.248	363.63
447.621	362.7
447.994	363.24
448.367	363.99
448.741	362.8
449.114	364.63
449.487	365.04
449.86	364.84
450.233	364.7
450.606	365.65
450.978	364.29
451.351	367.56
451.724	365.6
452.097	366.12
452.469	366.88
452.842	365.79
453.215	365.58
453.587	365.94
453.96	367.2
454.332	364.87
454.704	367.36
455.077	366.48
455.449	367.24
455.821	366.58
456.194	365.74
456.566	366.31
456.938	366.62
457.31	366.34
457.682	366.63
458.054	366.88
458.426	369
458.798	364.25
459.17	367.38
459.541	364.67
459.913	365.97
460.285	366.97
460.656	368.31
461.028	366.42
461.399	366.03
461.771	367.15
462.142	367.61
462.514	366.98
462.885	367.87
463.256	368.99
463.628	368.15
463.999	366.94
464.37	365.98
464.741	369.32
465.112	367.66
465.483	368.31
465.854	369.58
466.225	365.98
466.596	367.42
466.967	367.55
467.338	368.02
467.708	366.39
468.079	370.93
468.45	366.85
468.82	366.56
469.191	368.63
469.561	368.87
469.932	368.18
470.302	366.83
470.673	368.66
471.043	369.82
471.413	368.49
471.783	368.94
472.154	367.26
472.524	369.69
472.894	368.6
473.264	369.86
473.634	368.54
474.004	370.79
474.374	368.61
474.743	368.48
475.113	369.77
475.483	371.16
475.853	369.94
476.222	369.49
476.592	369.31
476.961	369.5
477.331	369.45
477.7	368.11
478.07	368.01
478.439	370.49
478.808	369.73
479.178	370.67
479.547	370.65
479.916	369.7
480.285	371.08
480.654	369.73
481.023	371.61
481.392	369.23
481.761	368.83
482.13	369.22
482.499	369.63
482.867	370.52
483.236	369.65
483.605	370.59
483.973	371.26
484.342	371.29
484.71	369.82
485.079	370.83
485.447	373.41
485.816	370.85
486.184	370.95
486.552	373.22
486.921	373.13
487.289	372.83
487.657	372.84
488.025	372.06
488.393	373.39
488.761	372.01
489.129	373.06
489.497	370.8
489.865	372.47
490.233	371.22
490.6	371.8
490.968	371.31
491.336	369.47
491.703	371.88
492.071	372.55
492.438	372.35
492.806	370.82
493.173	369.68
493.541	371.26
493.908	371.9
494.275	373.31
494.642	371.4
495.01	370.83
495.377	370.66
495.744	370.74
496.111	371.58
496.478	372.15
496.845	372.3
497.211	371.17
497.578	371.38
497.945	371.47
498.312	370.2
498.678	372.15
499.045	370.93
499.412	369.45
499.778	371.05
500.145	368.59
500.511	370.09
500.878	370.53
501.244	368.39
501.61	368.98
501.976	369.51
502.343	366.85
502.709	371.23
503.075	370.55
503.441	368.51
503.807	370.27
504.173	367.26
504.539	366.82
504.905	369.13
505.27	369.59
505.636	370.21
506.002	369.42
506.367	368.25
506.733	367.48
507.099	368.84
507.464	370.02
507.829	369.4
508.195	370.61
508.56	367.68
508.926	367.66
509.291	371.32
509.656	369.1
510.021	370.55
510.386	370.47
510.751	371.73
511.116	370.11
511.481	368.66
511.846	369.37
512.211	368.1
512.576	370.4
512.941	369.64
513.305	370.41
513.67	369.22
514.035	368.69
514.399	368.84
514.764	369.04
515.128	369.29
515.493	369.31
515.857	369.58
516.221	369.55
516.585	368.5
516.95	368.16
517.314	369.29
517.678	369.63
518.042	368.69
518.406	368.77
518.77	366.67
519.134	369.72
519.498	367.6
519.862	367.28
520.225	368.52
520.589	370.14
520.953	368.44
521.316	368.74
521.68	369.05
522.043	367.83
522.407	369.44
522.77	367.24
523.134	369.32
523.497	369.49
523.86	368.97
524.223	368.12
524.587	367.85
524.95	370.33
525.313	368.08
525.676	367.96
526.039	368.4
526.402	367.41
526.765	368.94
527.127	367.47
527.49	367.71
527.853	367.89
528.215	370.73
528.578	368.97
528.941	366.69
529.303	367.32
529.666	370.55
530.028	370.39
530.39	370.19
530.753	369.11
531.115	368.56
531.477	366.07
531.839	368.74
532.201	368.16
532.564	368.94
532.926	366.71
533.287	367.57
533.649	368.3
534.011	367.4
534.373	368.15
534.735	367.67
535.097	366.84
535.458	367.72
535.82	368.91
536.181	368.7
536.543	368.37
536.904	369.29
537.266	368.7
537.627	367.1
537.988	369.68
538.35	370.1
538.711	370.02
539.072	369.59
539.433	371.51
539.794	369.83
540.155	372.02
540.516	371.33
540.877	372.34
541.238	376.86
541.599	379.17
541.959	381.18
542.32	383.35
542.681	384.16
543.041	386.87
543.402	386.54
543.762	387.86
544.123	385.27
544.483	384.43
544.844	383.67
545.204	382.6
545.564	386.57
545.924	388.82
546.284	387.91
546.644	382.8
547.004	380.19
547.364	376.78
547.724	372.84
548.084	370.76
548.444	370.43
548.804	372.54
549.164	372.66
549.523	373.22
549.883	373.03
550.242	373.81
550.602	371.44
550.961	370.96
551.321	372.16
551.68	371.01
552.04	370.4
552.399	371.07
552.758	371.07
553.117	369.7
553.476	368.9
553.835	367.65
554.194	368.85
554.553	366.36
554.912	367.87
555.271	367.1
555.63	367.53
555.989	366.99
556.347	367.98
556.706	367.17
557.065	364.81
557.423	367.29
557.782	364.54
558.14	368.94
558.499	365.62
558.857	366.84
559.215	366.36
559.573	364.91
559.932	367.27
560.29	365.71
560.648	365.96
561.006	366.03
561.364	365.63
561.722	366.77
562.08	367.83
562.438	364.72
562.795	364.98
563.153	367.46
563.511	367.22
563.868	366.83
564.226	365.86
564.583	366.53
564.941	366
565.298	364.9
565.656	366.94
566.013	367.14
566.37	364.75
566.727	367.65
567.085	366.49
567.442	367.83
567.799	365.82
568.156	364.36
568.513	364.55
568.87	363.56
569.226	364.3
569.583	367.6
569.94	365.78
570.297	365.33
570.653	364.58
571.01	364.83
571.366	364.86
571.723	365.07
572.079	365.07
572.436	366.71
572.792	365.04
573.148	363.52
573.505	367.27
573.861	365.07
574.217	365.59
574.573	365.05
574.929	364.67
575.285	365.32
575.641	365.71
575.997	363.72
576.352	366.11
576.708	365.39
577.064	367.09
577.42	368.2
577.775	365.2
578.131	366.03
578.486	365.7
578.842	367.17
579.197	367.02
579.552	366.65
579.908	367.59
580.263	369.46
580.618	367.68
580.973	366.58
581.328	367.51
581.683	367.39
582.038	367.19
582.393	367.98
582.748	367.22
583.103	368.49
583.458	368
583.812	370.85
584.167	367.99
584.522	368.88
584.876	367.89
585.231	367.65
585.585	367.2
585.939	367.1
586.294	366.72
586.648	366.44
587.002	367.66
587.356	369.27
587.711	368.14
588.065	369.93
588.419	368.49
588.773	368.46
589.127	367.2
589.48	367.94
589.834	367.32
590.188	365.19
590.542	366.64
590.895	366.35
591.249	365.38
591.603	365.41
591.956	365.24
592.309	366.5
592.663	366.81
593.016	364.85
593.369	367.59
593.723	368.88
594.076	365.61
594.429	364.32
594.782	364.66
595.135	365.13
595.488	365.77
595.841	363.82
596.194	362.78
596.547	363.93
596.899	363.77
597.252	364.61
597.605	364.88
597.957	362.38
598.31	363.56
598.662	364.12
599.015	363.63
599.367	364.89
599.719	364.38
600.072	364.93
600.424	366.71
600.776	364.55
601.128	364.71
601.48	364.7
601.832	365.43
602.184	363.31
602.536	364.84
602.888	361.93
603.24	362.65
603.592	363.39
603.943	362.83
604.295	363.27
604.646	363.65
604.998	362.06
605.349	364.59
605.701	364.3
606.052	363.25
606.404	363.5
606.755	363.36
607.106	364.29
607.457	363.61
607.808	362.74
608.159	363.32
608.51	363.33
608.861	365.75
609.212	364.82
609.563	366.1
609.914	366.13
610.265	368.58
610.615	374.03
610.966	379.68
611.316	386.19
611.667	390.36
612.017	387
612.368	384.42
612.718	379.36
613.068	374.83
613.419	374.2
613.769	369.66
614.119	370.19
614.469	370.48
614.819	368.88
615.169	369.09
615.519	370.08
615.869	368.4
616.219	367.93
616.568	366.33
616.918	365.39
617.268	365.6
617.617	365.24
617.967	362.45
618.316	365.27
618.666	363.17
619.015	366.5
619.364	365.4
619.714	363.41
620.063	363.14
620.412	365.7
620.761	364.76
621.11	363.11
621.459	365.15
621.808	364.57
622.157	362.26
622.506	365.06
622.855	363.53
623.203	363.9
623.552	362.7
623.901	364.27
624.249	363.34
624.598	364.33
624.946	361.01
625.295	364.38
625.643	363.77
625.991	362.8
626.34	364.08
626.688	363.01
627.036	363.57
627.384	362.22
627.732	362.35
628.08	362.58
628.428	360.78
628.776	362.98
629.124	363.94
629.471	361.57
629.819	362.36
630.167	362.31
630.514	362.85
630.862	363.46
631.209	363.72
631.557	363.57
631.904	363.98
632.251	363.89
632.599	362.83
632.946	362.61
633.293	363.58
633.64	360.56
633.987	362.01
634.334	362.91
634.681	360.48
635.028	362.03
635.375	360.46
635.722	361.64
636.068	360.55
636.415	361.13
636.762	362.93
637.108	361.22
637.455	359.47
637.801	362.04
638.147	361.16
638.494	360.99
638.84	361.8
639.186	360.61
639.532	360.65
639.878	361.36
640.225	360.74
640.571	360.39
640.916	360.61
641.262	360.58
641.608	360.89
641.954	360
642.3	360.43
642.645	361.69
642.991	361.73
643.337	362.01
643.682	362.37
644.028	360.81
644.373	359.83
644.718	361.23
645.064	360.11
645.409	361.39
645.754	360.19
646.099	361.51
646.444	360.61
646.789	361.3
647.134	360.64
647.479	359.35
647.824	362.03
648.169	360.58
648.513	359.32
648.858	360.55
649.203	360.75
649.547	362.2
649.892	360.76
650.236	360.46
650.581	360.32
650.925	362.08
651.269	361.4
651.613	360.18
651.958	358.45
652.302	362.47
652.646	360.21
652.99	361.78
653.334	358.9
653.678	359.83
654.022	360.25
654.365	360.76
654.709	360.29
655.053	360
655.396	359.44
655.74	359.83
656.083	358.62
656.427	361.75
656.77	361.99
657.114	360.13
657.457	360.9
657.8	359.37
658.143	358.74
658.486	358.55
658.83	361.3
659.173	358.65
659.516	359.33
659.858	361.13
660.201	360.22
660.544	358.85
660.887	360.31
661.229	359.17
661.572	359.61
661.915	359.7
662.257	358.65
662.6	359.3
662.942	358.9
663.284	362.33
663.627	359.71
663.969	361.84
664.311	359.08
664.653	359.17
664.995	359.54
665.337	358.04
665.679	358.57
666.021	360.9
666.363	359.61
666.705	360.28
667.046	360.36
667.388	359.96
667.73	360.29
668.071	359.49
668.413	359.54
668.754	358.72
669.096	360.1
669.437	358.54
669.778	358.6
670.119	358.16
670.461	358.9
670.802	357.23
671.143	359.75
671.484	359.64
671.825	361.1
672.165	360.33
672.506	359.32
672.847	359.79
673.188	359.52
673.528	356.97
673.869	357.16
674.21	357.23
674.55	358.63
674.89	358.59
675.231	359.42
675.571	359.73
675.911	359.01
676.252	360.14
676.592	359.96
676.932	358.58
677.272	359.18
677.612	357.86
677.952	359.33
678.292	358
678.631	359.47
678.971	358.8
679.311	359.36
679.651	359.48
679.99	359.03
680.33	359.13
680.669	357.83
681.009	358.39
681.348	359.37
681.687	359.2
682.026	359.19
682.366	358.64
682.705	358.05
683.044	358.34
683.383	358.36
683.722	357.59
684.061	358.54
684.4	357.88
684.738	358.45
685.077	358.32
685.416	358.78
685.754	358.84
686.093	359.07
686.431	357.83
686.77	359.96
687.108	358.27
687.447	357.79
687.785	358.44
688.123	358.87
688.461	358.76
688.799	358.89
689.137	357.54
689.475	359.18
689.813	358.27
690.151	358.6
690.489	357.42
690.827	358.27
691.164	357.77
691.502	358.59
691.84	357.23
692.177	356.88
692.515	359.68
692.852	360.28
693.189	359.48
693.527	357.07
693.864	359.11
694.201	358.91
694.538	357.63
694.875	358.04
695.212	358.27
695.549	360.29
695.886	358.74
696.223	358.33
696.56	358.73
696.897	358.32
697.233	358.31
697.57	358.01
697.906	358.5
698.243	358.42
698.579	356.59
698.916	358.75
699.252	354.82
699.588	357
699.924	358.7
700.261	357.36
700.597	359.64
700.933	359.83
701.269	358.5
701.605	356.58
701.941	357.07
702.276	358.38
702.612	356.73
702.948	359.44
703.283	358.19
703.619	356.04
703.954	357.92
704.29	358.02
704.625	359.64
704.961	357.94
705.296	357.97
705.631	356.78
705.966	359.22
706.301	358.55
706.637	358.95
706.972	359.62
707.306	359.52
707.641	357.97
707.976	358.04
708.311	358.51
708.646	359.13
708.98	359.1
709.315	359.42
709.649	360.53
709.984	359.39
710.318	358.5
710.653	357.29
710.987	356.17
711.321	357.79
711.655	359.9
711.989	359.19
712.324	358.37
712.658	358.23
712.992	358.66
713.325	358.58
713.659	357.81
713.993	359.1
714.327	357.23
714.66	355.99
714.994	356.56
715.328	356.05
715.661	358.52
715.994	358.32
716.328	358.5
716.661	358.77
716.994	356.47
717.328	356.57
717.661	356.48
717.994	357.17
718.327	356.97
718.66	356.88
718.993	357.62
719.325	356.78
719.658	356.35
719.991	357.05
720.324	356.09
720.656	356.31
720.989	358.75
721.321	355.55
721.654	357.12
721.986	358.05
722.318	357.19
722.651	355.33
722.983	356.3
723.315	357.67
723.647	356.27
723.979	356.72
724.311	356.85
724.643	357.86
724.975	357.19
725.307	356.23
725.638	357.36
725.97	356.33
726.302	354.59
726.633	354.11
726.965	358.42
727.296	356.33
727.628	356.68
727.959	356.29
728.29	355.78
728.621	357.71
728.952	356.23
729.284	356.56
729.615	355.42
729.945	358.41
730.276	357.42
730.607	356.21
730.938	355.3
731.269	355.51
731.599	356.04
731.93	357.73
732.261	357.68
732.591	354.92
732.922	356.84
733.252	356.29
733.582	355.32
733.912	354.07
734.243	357.02
734.573	358.67
734.903	357.05
735.233	355.65
735.563	357.09
735.893	356.53
736.223	355.34
736.552	353.68
736.882	353.75
737.212	356.51
737.541	355.66
737.871	355.34
738.2	356.88
738.53	355.81
738.859	355.42
739.188	356.95
739.518	357.93
739.847	357.07
740.176	356.72
740.505	355.13
740.834	355.83
741.163	354.14
741.492	356.54
741.821	356.1
742.15	354.72
742.478	357.14
742.807	357.51
743.136	357.26
743.464	356.06
743.793	354.83
744.121	354.27
744.449	356.57
744.778	356.15
745.106	356.33
745.434	355.49
745.762	355.29
746.09	359.26
746.418	357.64
746.746	355.81
747.074	357.39
747.402	355.79
747.73	355.46
748.057	355.74
748.385	357.69
748.712	355.9
749.04	356.59
749.367	355.07
749.695	356.22
750.022	355.95
750.349	356.55
750.677	355.79
751.004	358.22
751.331	354.15
751.658	355.13
751.985	355.89
752.312	355.4
752.639	355.64
752.966	354.77
753.292	356.74
753.619	355.03
753.946	357.38
754.272	353.92
754.599	356.44
754.925	356.62
755.251	356.07
755.578	355.04
755.904	356.67
756.23	355.93
756.556	355.19
756.882	356.09
757.208	355.86
757.534	354.56
757.86	354.45
758.186	355.67
758.512	354.5
758.838	355.25
759.163	357.25
759.489	355.36
759.814	354.82
760.14	354.3
760.465	357.7
760.791	354.42
761.116	355.6
761.441	352.65
761.766	355.95
762.092	355.91
762.417	353.89
762.742	354.59
763.066	356.6
763.391	357.05
763.716	353.58
764.041	354.04
764.366	356.72
764.69	355.85
765.015	357.93
765.339	354.62
765.664	354.73
765.988	354.63
766.312	354.45
766.637	358.55
766.961	354.44
767.285	352.38
767.609	355.74
767.933	354.98
768.257	354.37
768.581	355.62
768.905	354.18
769.229	355.26
769.552	354.37
769.876	357.46
770.2	356.33
770.523	354.36
770.847	353.51
771.17	354.53
771.493	355.08
771.817	355.95
772.14	355.9
772.463	355.17
772.786	356.88
773.109	356.27
773.432	354.69
773.755	355.39
774.078	354.09
774.401	354.25
774.724	355.23
775.046	355.02
775.369	354.93
775.692	356
776.014	353.76
776.336	354.09
776.659	352.91
776.981	353.19
777.303	353.09
777.626	355.78
777.948	354.91
778.27	355.29
778.592	356.46
778.914	354.67
779.236	355.37
779.557	355.4
779.879	354.58
780.201	357.22
780.523	354.22
780.844	354.6
781.166	354
781.487	352.42
781.809	355.49
782.13	354.47
782.451	355.04
782.772	352.98
783.094	355.22
783.415	355.46
783.736	354
784.057	353.2
784.378	353.93
784.698	353.89
785.019	353.98
785.34	353.65
785.661	354.89
785.981	353.48
786.302	355.44
786.622	354.84
786.943	354.4
787.263	353.83
787.583	355.5
787.903	353.46
788.224	354.26
788.544	355.05
788.864	354.55
789.184	354.48
789.504	351.49
789.824	354.93
790.143	354.44
790.463	354.22
790.783	354.48
791.102	354.89
791.422	355.82
791.741	353.21
792.061	354.26
792.38	353.48
792.699	353.43
793.019	354.21
793.338	353.95
793.657	353.13
793.976	353.56
794.295	352.43
794.614	353.51
794.933	354.39
795.252	354.41
795.57	351.21
795.889	355
796.208	355.29
796.526	353.2
796.845	353.08
797.163	354.2
797.482	353.17
797.8	353.74
798.118	353.7
798.436	354.27
798.754	354.98
799.073	354.13
799.391	353.02
799.708	354.77
800.026	353.75
800.344	354.79
800.662	352.99
800.98	354.97
801.297	351.62
801.615	355.34
801.932	354.68
802.25	353.4
802.567	355.24
802.884	356.05
803.202	354.52
803.519	353.81
803.836	353.83
804.153	354.63
804.47	353.98
804.787	352.95
805.104	354.4
805.421	353.41
805.737	354.06
806.054	352.8
806.371	355.53
806.687	352.98
807.004	352.13
807.32	354.5
807.637	352.82
807.953	352.91
808.269	353.66
808.585	352.81
808.902	352.66
809.218	352.08
809.534	356.43
809.85	352.89
810.165	352.76
810.481	352.45
810.797	354.19
811.113	353.18
811.428	353.4
811.744	352.32
812.059	353.35
812.375	354.01
812.69	353.05
813.006	352.41
813.321	354.93
813.636	353.8
813.951	353.78
814.266	353.12
814.581	352.67
814.896	353.12
815.211	353.41
815.526	353.15
815.841	354.15
816.155	352.14
816.47	353.71
816.784	352.56
817.099	353.48
817.413	351.02
817.728	353.85
818.042	351.14
818.356	353.84
818.67	352.59
818.985	353.05
819.299	355.96
819.613	354.25
819.926	352.84
820.24	352.95
820.554	351.86
820.868	351.47
821.182	353.65
821.495	353.91
821.809	354.15
822.122	352.4
822.436	354.24
822.749	352.69
823.062	353.24
823.376	353.97
823.689	353.19
824.002	353.45
824.315	351.39
824.628	351.13
824.941	352.52
825.254	354.54
825.566	351.8
825.879	352.11
826.192	352.33
826.504	352.88
826.817	353.87
827.129	353.71
827.442	354.52
827.754	351.33
828.066	352.23
828.379	352.23
828.691	352.61
829.003	354.29
829.315	352.63
829.627	353.45
829.939	352.92
830.251	352.21
830.562	352.91
830.874	352.55
831.186	351.28
831.497	353.2
831.809	352.68
832.12	351.77
832.432	350.9
832.743	353.66
833.054	351.22
833.365	354.22
833.676	352.55
833.988	355.31
834.299	352.16
834.61	353.41
834.92	351.66
835.231	353.45
835.542	351.08
835.853	354.02
836.163	351.96
836.474	351.04
836.784	351.63
837.095	351.41
837.405	352.48
837.715	351.65
838.026	352.37
838.336	352.37
838.646	352.45
838.956	352.71
839.266	350.93
839.576	352.4
839.886	353.04
840.195	352.39
840.505	352.55
840.815	352.96
841.124	351.46
841.434	351.81
841.743	350.92
842.053	351.18
842.362	351.88
842.671	350.43
842.981	352.39
843.29	352.6
843.599	353.52
843.908	351.51
844.217	351.43
844.526	353.55
844.835	352.15
845.143	353.33
845.452	354.32
845.761	351.08
846.069	352.25
846.378	349.61
846.686	351.87
846.995	350.58
847.303	351.61
847.611	351.84
847.919	350.97
848.227	354.41
848.535	351.29
848.843	352.6
849.151	350.63
849.459	352.98
849.767	352.94
850.075	353.06
850.382	351.72
850.69	350.71
850.998	350.93
851.305	351.15
851.612	350.81
851.92	351.66
852.227	351.8
852.534	350.72
852.841	351.99
853.148	352.12
853.455	350.59
853.762	351.97
854.069	351.91
854.376	353.02
854.683	351.64
854.99	351.2
855.296	350.99
855.603	354.28
855.909	350.17
856.216	352.57
856.522	354.4
856.828	352.46
857.135	352.54
857.441	351.42
857.747	351.31
858.053	350.91
858.359	350.88
858.665	351.98
858.971	354.22
859.276	349.57
859.582	351.84
859.888	351.55
860.193	351.54
860.499	349.67
860.804	350.61
861.11	352.12
861.415	349.94
861.72	350.64
862.026	350.86
862.331	351.82
862.636	350.87
862.941	352.39
863.246	352.19
863.551	353.21
863.855	352.16
864.16	352.5
864.465	351.11
864.769	350.28
865.074	349.87
865.378	351.72
865.683	348.48
865.987	351.6
866.291	351.99
866.596	350.28
866.9	350.39
867.204	351.06
867.508	352.45
867.812	350.36
868.116	351.7
868.42	349.69
868.723	351.88
869.027	351.26
869.331	352.08
869.634	352.06
869.938	350.14
870.241	351.22
870.544	349.58
870.848	350.06
871.151	351.63
871.454	352.04
871.757	349.73
872.06	349.19
872.363	351.43
872.666	350.53
872.969	351.85
873.272	349.96
873.574	351.78
873.877	350.32
874.18	351.55
874.482	350.26
874.785	352.42
875.087	350.26
875.389	351.13
875.692	350.95
875.994	352.15
876.296	353.61
876.598	350.47
876.9	350.04
877.202	351.32
877.504	353.42
877.805	349.28
878.107	348.67
878.409	348.41
878.71	350.82
879.012	351.06
879.313	349.27
879.615	350.47
879.916	350.86
880.217	348.72
880.518	348.84
880.82	353.11
881.121	349.28
881.422	351.78
881.723	349.59
882.023	348.6
882.324	350.85
882.625	350.05
882.926	352.19
883.226	350.85
883.527	348.45
883.827	350.39
884.128	349.87
884.428	350.33
884.728	352.25
885.028	349.46
885.328	349.4
885.629	351.42
885.929	350.89
886.228	351.34
886.528	350.13
886.828	351.43
887.128	351
887.427	350.03
887.727	349.99
888.027	348.74
888.326	348.86
888.625	351.98
888.925	349.9
889.224	350.19
889.523	349.47
889.822	350.34
890.121	349.01
890.42	350.61
890.719	348.52
891.018	351.25
891.317	352.12
891.616	352.46
891.914	349.72
892.213	349.81
892.512	349.24
892.81	350.68
893.108	351.03
893.407	351.31
893.705	350.41
894.003	350.41
894.301	350.2
894.599	350.24
894.897	349.62
895.195	352.13
895.493	350.48
895.791	350.29
896.089	347.24
896.386	349.8
896.684	349.88
896.981	348.92
897.279	351.02
897.576	350.11
897.874	348.66
898.171	349.7
898.468	348.6
898.765	351.49
899.062	350.26
899.359	349.27
899.656	350.86
899.953	351.89
900.25	349.12
900.547	349.69
900.843	349.7
901.14	351.04
901.436	348.95
901.733	349.8
902.029	350.41
902.325	350.65
902.622	349.34
902.918	349.59
903.214	351.32
903.51	350.35
903.806	347.46
904.102	349.56
904.398	347.72
904.694	349.05
904.989	349.65
905.285	349.66
905.581	349.87
905.876	351.78
906.171	348.76
906.467	348.52
906.762	350.39
907.057	350.35
907.353	349.71
907.648	348.32
907.943	347.97
908.238	350.28
908.533	349.36
908.827	349.26
909.122	349.44
909.417	349.11
909.711	348.04
910.006	351.11
910.301	349.18
910.595	349.86
910.889	347.92
911.184	349.68
911.478	348.88
911.772	347.69
912.066	350.05
912.36	350.46
912.654	348.14
912.948	350.35
913.242	348.74
913.536	349.79
913.829	350.15
914.123	350.53
914.416	349.44
914.71	350.29
915.003	349.05
915.297	349.22
915.59	349.77
915.883	350.89
916.176	349.78
916.469	349.53
916.762	348.26
917.055	349.26
917.348	349.58
917.641	348.7
917.934	348.53
918.226	351.08
918.519	350.24
918.811	349.33
919.104	348.71
919.396	349.59
919.689	348.18
919.981	348.71
920.273	347.46
920.565	346.29
920.857	349.71
921.149	349.32
921.441	348.96
921.733	348.31
922.025	348.5
922.316	348.09
922.608	348.96
922.9	347.69
923.191	349.03
923.483	348.81
923.774	349.33
924.065	348.4
924.357	348.52
924.648	350.05
924.939	350.96
925.23	350.39
925.521	349.82
925.812	350.06
926.102	348.86
926.393	348.68
926.684	350.35
926.975	349.13
927.265	349.17
927.556	348.67
927.846	348.26
928.136	349.92
928.427	348.15
928.717	348.53
929.007	348.96
929.297	347.82
929.587	348.93
929.877	347.97
930.167	350.42
930.457	349.28
930.746	348.2
931.036	346.32
931.325	350.12
931.615	349.03
931.904	348.71
932.194	348.41
932.483	349.7
932.772	349.81
933.062	348.15
933.351	348.13
933.64	349.53
933.929	349.68
934.218	349.32
934.506	348.19
934.795	348.05
935.084	349.53
935.372	348.82
935.661	347.46
935.949	347.47
936.238	349.42
936.526	347.58
936.815	349.09
937.103	348.34
937.391	349.56
937.679	348.75
937.967	347.84
938.255	349.04
938.543	349.6
938.831	351.03
939.118	349.44
939.406	348.06
939.693	348.04
939.981	347.79
940.268	350.25
940.556	350.48
940.843	348.83
941.13	347.9
941.418	349.12
941.705	346.81
941.992	349.17
942.279	350.2
942.566	347.4
942.852	347.24
943.139	348.04
943.426	348.59
943.712	347.88
943.999	346.94
944.285	348.21
944.572	347.67
944.858	348.06
945.144	348.04
945.431	349.4
945.717	348.11
946.003	348.67
946.289	348.27
946.575	348.42
946.861	348.1
947.146	347.81
947.432	347.37
947.718	347.44
948.003	350.2
948.289	347.83
948.574	348.35
948.86	348.04
949.145	347.26
949.43	350.09
949.715	348.33
950	348.69
950.285	348.68
950.57	348.44
950.855	349.15
951.14	348.34
951.425	348.47
951.709	346.7
951.994	348.24
952.278	347.35
952.563	348.35
952.847	348.34
953.132	348.5
953.416	348.08
953.7	345.71
953.984	347.13
954.268	348.1
954.552	347.25
954.836	348.79
955.12	347.59
955.404	348.94
955.687	348.18
955.971	346.75
956.254	348.84
956.538	347.64
956.821	346.8
957.105	348.14
957.388	346.26
957.671	348.81
957.954	347.39
958.237	346.99
958.52	348.51
958.803	350.29
959.086	347.81
959.369	346.92
959.652	347.72
959.934	348.22
960.217	346.59
960.499	348.96
960.782	349.28
961.064	346.49
961.346	347.02
961.629	346.89
961.911	347.18
962.193	347.49
962.475	346.56
962.757	347.12
963.039	345.77
963.32	346.81
963.602	346.71
963.884	345.58
964.165	346.34
964.447	348.62
964.728	346.2
965.01	347.07
965.291	347.34
965.572	347.33
965.853	346.87
966.134	345.86
966.415	347.78
966.696	346.99
966.977	348.58
967.258	345.45
967.539	347.05
967.819	348.62
968.1	346.26
968.38	348.59
968.661	347.98
968.941	348.07
969.222	346.61
969.502	347.64
969.782	347.84
970.062	348.12
970.342	346.86
970.622	347.79
970.902	347.68
971.182	347
971.462	347.71
971.741	345.2
972.021	347.12
972.3	346.08
972.58	346.87
972.859	348.12
973.138	347.97
973.418	347.4
973.697	347.33
973.976	347.3
974.255	348.14
974.534	346.79
974.813	347.61
975.092	346.94
975.37	346.29
975.649	347.6
975.928	347.32
976.206	347
976.485	348.05
976.763	348.69
977.041	346.48
977.32	346.9
977.598	347.07
977.876	346.5
978.154	345.04
978.432	345.62
978.71	345.93
978.988	346.93
979.265	346.73
979.543	346.71
979.821	346.63
980.098	345.85
980.376	346.29
980.653	346.25
980.93	344.84
981.208	345.63
981.485	345.05
981.762	347.5
982.039	343.93
982.316	347.12
982.593	346.36
982.87	346.7
983.146	347.76
983.423	345.5
983.7	346.43
983.976	348.37
984.253	346.68
984.529	346.15
984.805	347.47
985.082	346.65
985.358	347.17
985.634	347.47
985.91	347.07
986.186	347.36
986.462	346.43
986.738	347.76
987.013	346.98
987.289	345.68
987.565	347.76
987.84	345.87
988.116	345.74
988.391	347.12
988.666	347.22
988.942	346.58
989.217	346.89
989.492	346.58
989.767	346.34
990.042	345.32
990.317	347.2
990.592	346.57
990.866	346.37
991.141	347.71
991.416	345.88
991.69	346.71
991.964	346.07
992.239	346.74
992.513	346.85
992.787	348.12
993.062	345.65
993.336	348.04
993.61	345.96
993.884	346.52
994.158	347.31
994.431	346.92
994.705	346
994.979	347.92
995.252	346.24
995.526	347.17
995.799	346.14
996.073	346.28
996.346	346.29
996.619	346.15
996.892	346.13
997.165	346.66
997.438	343.51
997.711	346.32
997.984	347.8
998.257	347.46
998.53	347.19
998.802	347.04
999.075	346.19
999.347	346.9
999.62	347.68
999.892	345.23
1000.165	346.46
1000.437	344.78
1000.709	346.21
1000.981	346.71
1001.253	346.09
1001.525	346.6
1001.797	344.8
1002.068	346.11
1002.34	348.32
1002.612	346.71
1002.883	345.59
1003.155	345.29
1003.426	345.67
1003.698	344.94
1003.969	345.49
1004.24	346.12
1004.511	345.91
1004.782	345.48
1005.053	344.93
1005.324	345.31
1005.595	346.98
1005.866	345.32
1006.136	343.79
1006.407	346.54
1006.678	345.96
1006.948	345.06
1007.218	344.85
1007.489	345.67
1007.759	346.71
1008.029	345.57
1008.299	344.44
1008.569	344.64
1008.839	345.58
1009.109	346.93
1009.379	348.31
1009.649	346.41
1009.918	346.47
1010.188	346.35
1010.458	345.9
1010.727	347.04
1010.996	347.82
1011.266	346.9
1011.535	345.41
1011.804	345.68
1012.073	346.02
1012.342	346.46
1012.611	344.54
1012.88	346.18
1013.149	345.88
1013.417	345.09
1013.686	345.49
1013.955	346.69
1014.223	346.9
1014.492	347.1
1014.76	344
1015.028	345.3
1015.296	347.16
1015.565	347.37
1015.833	344.91
1016.101	345.88
1016.368	348.03
1016.636	345.53
1016.904	345.44
1017.172	344.94
1017.439	345.52
1017.707	345.84
1017.974	347.23
1018.242	343.3
1018.509	346.2
1018.776	343.92
1019.044	346.28
1019.311	345.27
1019.578	346.09
1019.845	344.3
1020.112	344.55
1020.378	344.55
1020.645	344.55
