Data from 190614_Kr_34K_film_FLMS138901_16-35-17-217.txt Node
Date: Fri Jun 14 16:35:17 EDT 2019
User: pSAM
Spectrometer: FLMS13890
Trigger mode: 0
Integration Time (sec): 5.000000E-3
Scans to average: 1000
Electric dark correction enabled: true
Nonlinearity correction enabled: false
Boxcar width: 0
XAxis mode: Wavelengths
Number of Pixels in Spectrum: 2048
>>>>>Begin Spectral Data<<<<<
342.097	-61.78
342.483	-61.78
342.868	-61.78
343.254	-101.39
343.639	-104.26
344.025	-102.94
344.41	-97.86
344.796	-90.72
345.181	-81.29
345.567	-66.32
345.952	-52.43
346.337	-36.21
346.722	-18.39
347.107	-0.01
347.493	18.34
347.878	40.65
348.263	59.37
348.648	79.92
349.033	96.1
349.418	117.08
349.802	134.72
350.187	153.82
350.572	172.38
350.957	238.32
351.342	377.3
351.726	403.8
352.111	420.93
352.495	435.74
352.88	449.12
353.264	459.92
353.649	473.05
354.033	483.81
354.418	494.65
354.802	504.47
355.186	515.53
355.57	521.75
355.955	528.88
356.339	532.58
356.723	537.95
357.107	544.06
357.491	560.11
357.875	551.95
358.259	553.65
358.643	555.31
359.026	557.57
359.41	559.68
359.794	560.79
360.178	561.78
360.561	561.16
360.945	560.78
361.329	562.99
361.712	561.39
362.096	564.39
362.479	562.77
362.862	563.68
363.246	563.58
363.629	563.22
364.012	561.62
364.396	561.07
364.779	562.5
365.162	562.08
365.545	565.9
365.928	562.63
366.311	565.12
366.694	569.75
367.077	571.72
367.46	570.02
367.843	575.02
368.226	572.27
368.608	573.68
368.991	574.85
369.374	575.79
369.756	578.01
370.139	574.25
370.521	579.24
370.904	579.1
371.286	581.29
371.669	584.26
372.051	581.11
372.433	583.71
372.816	587.76
373.198	588.4
373.58	592.19
373.962	591.62
374.344	595.82
374.726	597.46
375.108	598.27
375.49	601.51
375.872	603.22
376.254	600.9
376.636	604.18
377.018	606.98
377.399	608.55
377.781	610.71
378.163	609.34
378.544	609.93
378.926	615.77
379.307	623.31
379.689	629.26
380.07	629.6
380.452	636.12
380.833	635.09
381.214	638.54
381.596	637.36
381.977	649.26
382.358	656.36
382.739	663.1
383.12	667.89
383.501	663.21
383.882	660.23
384.263	664.17
384.644	663.98
385.025	672.89
385.406	671.56
385.787	675.94
386.167	680.57
386.548	683.48
386.929	692.06
387.309	699.61
387.69	708.37
388.07	715.85
388.451	714.58
388.831	719.67
389.211	708.15
389.592	703.96
389.972	704.95
390.352	710.75
390.733	714.78
391.113	716.61
391.493	722.93
391.873	729.66
392.253	741.48
392.633	752.43
393.013	760.3
393.393	758.49
393.772	754.61
394.152	762.19
394.532	761.84
394.912	767.33
395.291	763.12
395.671	763.73
396.05	757.05
396.43	761.71
396.809	764.97
397.189	775.52
397.568	784.2
397.948	790.61
398.327	798.03
398.706	803.37
399.085	803.42
399.465	798.72
399.844	792.21
400.223	787.4
400.602	790.37
400.981	791.68
401.36	791.93
401.739	794.29
402.117	799.65
402.496	796.31
402.875	799.22
403.254	809.91
403.632	811.35
404.011	818.06
404.39	833.42
404.768	836.66
405.147	850.47
405.525	855.65
405.903	855.28
406.282	855.88
406.66	849.77
407.038	841.22
407.417	837.2
407.795	840
408.173	849.18
408.551	853.29
408.929	858
409.307	861.31
409.685	868.81
410.063	868.06
410.441	867.82
410.818	873.21
411.196	878.1
411.574	889.81
411.952	892.33
412.329	912.58
412.707	928.37
413.084	934.26
413.462	932.13
413.839	932.11
414.217	922.64
414.594	929.05
414.971	934.12
415.349	935.97
415.726	938.98
416.103	930
416.48	935.86
416.857	941.96
417.234	954.4
417.611	953.13
417.988	954.81
418.365	947.57
418.742	954.72
419.119	964.14
419.495	965.4
419.872	968.59
420.249	993.7
420.625	1008.29
421.002	1024.79
421.379	1031.7
421.755	1043.64
422.131	1056.02
422.508	1062.14
422.884	1064.57
423.26	1069.93
423.637	1075.44
424.013	1049.72
424.389	1039.99
424.765	1039.34
425.141	1044.49
425.517	1040.68
425.893	1035.62
426.269	1039.75
426.645	1060.91
427.021	1090.25
427.397	1101.11
427.772	1101.47
428.148	1093.98
428.524	1098.43
428.899	1093.44
429.275	1114.61
429.651	1133.15
430.026	1145.33
430.401	1153.84
430.777	1149.89
431.152	1140.01
431.527	1133.99
431.903	1135.41
432.278	1132.53
432.653	1136.84
433.028	1162.25
433.403	1189.16
433.778	1221.12
434.153	1205.62
434.528	1196.82
434.903	1201
435.278	1210.89
435.653	1220.41
436.027	1224.67
436.402	1233.23
436.777	1240.99
437.151	1244.7
437.526	1258.15
437.9	1264.26
438.275	1281.73
438.649	1278.67
439.023	1286.54
439.398	1282.83
439.772	1280.83
440.146	1294.66
440.52	1329.14
440.895	1356.54
441.269	1390.83
441.643	1401.21
442.017	1384.69
442.391	1384.05
442.765	1382.79
443.138	1378.55
443.512	1402.36
443.886	1406.99
444.26	1409.13
444.633	1415.72
445.007	1414.46
445.38	1421.17
445.754	1427.47
446.127	1435.37
446.501	1433.16
446.874	1427.5
447.248	1429.62
447.621	1438
447.994	1434.22
448.367	1444.49
448.741	1451.19
449.114	1442.47
449.487	1460.75
449.86	1464
450.233	1461.34
450.606	1458.71
450.978	1456.08
451.351	1472.89
451.724	1462.11
452.097	1466.78
452.469	1472.78
452.842	1475.63
453.215	1478.38
453.587	1483.08
453.96	1489.07
454.332	1491.68
454.704	1506.16
455.077	1515.13
455.449	1530.28
455.821	1523.62
456.194	1547.6
456.566	1551.49
456.938	1576.14
457.31	1598.81
457.682	1627.28
458.054	1629.8
458.426	1648.68
458.798	1656.49
459.17	1664.41
459.541	1659.16
459.913	1641.07
460.285	1642.36
460.656	1651.95
461.028	1646.18
461.399	1661.1
461.771	1660.32
462.142	1679.38
462.514	1719.67
462.885	1736.89
463.256	1784.69
463.628	1799.83
463.999	1829.62
464.37	1862.49
464.741	1864.55
465.112	1853.47
465.483	1859.57
465.854	1866.17
466.225	1851.18
466.596	1847.97
466.967	1879.93
467.338	1880.79
467.708	1916.41
468.079	1924.55
468.45	1925.42
468.82	1930.52
469.191	1936.76
469.561	1939.84
469.932	1962.43
470.302	1954
470.673	1987.11
471.043	2013.32
471.413	2028.41
471.783	2060.81
472.154	2109.72
472.524	2136.03
472.894	2187.52
473.264	2211.41
473.634	2204.25
474.004	2221.41
474.374	2266.72
474.743	2284.57
475.113	2332.77
475.483	2352.41
475.853	2390.72
476.222	2415.14
476.592	2456.44
476.961	2443.32
477.331	2476.14
477.7	2512.37
478.07	2574.82
478.439	2589.97
478.808	2616.18
479.178	2634.85
479.547	2695.56
479.916	2711.93
480.285	2763.92
480.654	2790.59
481.023	2832.48
481.392	2873.43
481.761	2898.04
482.13	2940.06
482.499	2980.86
482.867	3006.63
483.236	3071.59
483.605	3138.87
483.973	3190.75
484.342	3263.06
484.71	3327.83
485.079	3760.16
485.447	4155.03
485.816	4477.83
486.184	4325.25
486.552	3955.69
486.921	3702.65
487.289	3587.41
487.657	3559.36
488.025	3552.75
488.393	3579.46
488.761	3613.88
489.129	3691.87
489.497	3717.29
489.865	3796.6
490.233	3821.53
490.6	3873.24
490.968	3859.46
491.336	3882.15
491.703	3904.46
492.071	3952.09
492.438	3988.24
492.806	4035.98
493.173	4094.16
493.541	4113.75
493.908	4109.31
494.275	4114.46
494.642	4125.04
495.01	4154.86
495.377	4191.25
495.744	4241.69
496.111	4322.1
496.478	4377.42
496.845	4365.42
497.211	4360.67
497.578	4389.05
497.945	4434.98
498.312	4506.84
498.678	4544.4
499.045	4600.36
499.412	4583.49
499.778	4598.29
500.145	4606.45
500.511	4640.8
500.878	4707.85
501.244	4761.32
501.61	4773.16
501.976	4771.29
502.343	4807.21
502.709	4862.35
503.075	4869.87
503.441	4866.78
503.807	4881.18
504.173	4884.91
504.539	4926.83
504.905	4944.86
505.27	4988.37
505.636	5012.63
506.002	5051.1
506.367	5061.68
506.733	5066.72
507.099	5055.46
507.464	5094.76
507.829	5109.61
508.195	5155.71
508.56	5170.25
508.926	5185.98
509.291	5210.35
509.656	5228.5
510.021	5252.2
510.386	5276.98
510.751	5317.28
511.116	5359.61
511.481	5389.97
511.846	5426.6
512.211	5426.52
512.576	5440.64
512.941	5465.22
513.305	5489.21
513.67	5521.98
514.035	5533.94
514.399	5559.37
514.764	5549.7
515.128	5583.46
515.493	5596.19
515.857	5645.51
516.221	5638.27
516.585	5664.35
516.95	5707.81
517.314	5738.02
517.678	5752.84
518.042	5761.46
518.406	5816.3
518.77	5813.37
519.134	5847.57
519.498	5898.65
519.862	5898.27
520.225	5897.92
520.589	5943.17
520.953	5986.94
521.316	6011.39
521.68	5990.36
522.043	6015.41
522.407	6020.69
522.77	6052.88
523.134	6126.38
523.497	6125.9
523.86	6164.59
524.223	6186.61
524.587	6214.51
524.95	6255.68
525.313	6299.69
525.676	6337.15
526.039	6357.39
526.402	6361.14
526.765	6419.71
527.127	6448.77
527.49	6474.06
527.853	6500.04
528.215	6526.84
528.578	6617.69
528.941	6616.54
529.303	6655.06
529.666	6670.5
530.028	6714.65
530.39	6762.02
530.753	6767.92
531.115	6812.28
531.477	6837.85
531.839	6872.74
532.201	6906.91
532.564	6975.92
532.926	7022.46
533.287	7110.92
533.649	7135
534.011	7148.53
534.373	7205.91
534.735	7242.41
535.097	7265.61
535.458	7311.42
535.82	7351.44
536.181	7371.57
536.543	7378.68
536.904	7388.16
537.266	7497.43
537.627	7558.15
537.988	7600.01
538.35	7641.68
538.711	7682.3
539.072	7740.65
539.433	7738.33
539.794	7781.15
540.155	7803.97
540.516	7890.47
540.877	7937.63
541.238	7988.02
541.599	8045.39
541.959	8055.06
542.32	8110.64
542.681	8164.39
543.041	8189.13
543.402	8241.26
543.762	8275.47
544.123	8274.7
544.483	8316.59
544.844	8361.13
545.204	8393.28
545.564	8365
545.924	8394.71
546.284	8445.06
546.644	8478.16
547.004	8509.09
547.364	8590.23
547.724	8623.44
548.084	8646.62
548.444	8714.01
548.804	8711.66
549.164	8702.21
549.523	8709.31
549.883	8758.04
550.242	8782.81
550.602	8835.9
550.961	8854.86
551.321	8867.33
551.68	8908.83
552.04	8920.72
552.399	8977.88
552.758	9012.51
553.117	8984.07
553.476	9091.38
553.835	9137.79
554.194	9143.01
554.553	9141.78
554.912	9171.64
555.271	9248.64
555.63	9252.03
555.989	9262.36
556.347	9283.92
556.706	9287.55
557.065	9311.79
557.423	9387.8
557.782	9417.25
558.14	9403.28
558.499	9441.94
558.857	9507.73
559.215	9492.59
559.573	9559.93
559.932	9602.87
560.29	9664.83
560.648	9667.3
561.006	9726.52
561.364	9745.64
561.722	9766.95
562.08	9834.01
562.438	9807.58
562.795	9862.58
563.153	9903.5
563.511	9926.9
563.868	10003.5
564.226	10019.82
564.583	10088.83
564.941	10015.3
565.298	10133.37
565.656	10134.47
566.013	10207.1
566.37	10298.25
566.727	10422.82
567.085	10519
567.442	10567.64
567.799	10657.38
568.156	10669.5
568.513	10774.8
568.87	10948.08
569.226	11192.43
569.583	11423.33
569.94	11397.36
570.297	11468.42
570.653	11496.88
571.01	11681.88
571.366	11885.84
571.723	11840.78
572.079	11761.08
572.436	11690.09
572.792	11839.18
573.148	12106.39
573.505	12336.79
573.861	12434.99
574.217	12453.74
574.573	12566.47
574.929	12516.1
575.285	12575.55
575.641	12677.87
575.997	12739.3
576.352	12815.66
576.708	12881.28
577.064	13160.04
577.42	13401.25
577.775	13574.22
578.131	13416.61
578.486	13175.84
578.842	13130.3
579.197	13314.99
579.552	13506.82
579.908	13699.65
580.263	13637.6
580.618	13736.41
580.973	14199.39
581.328	14805.42
581.683	15148.42
582.038	14693.18
582.393	14071.34
582.748	13450.37
583.103	13112.41
583.458	13150.57
583.812	13394.6
584.167	13735.27
584.522	13988.69
584.876	13990.15
585.231	14109.91
585.585	13949.24
585.939	13744.38
586.294	13607.13
586.648	13694.15
587.002	13843.73
587.356	14087.09
587.711	14253.69
588.065	14323.72
588.419	14126.9
588.773	13890.25
589.127	13589.04
589.48	13549.55
589.834	13449.55
590.188	13414.08
590.542	13464.88
590.895	13462.98
591.249	13494.33
591.603	13361.99
591.956	13570.25
592.309	13836.25
592.663	14052.33
593.016	14356.51
593.369	14279.33
593.723	14114.13
594.076	14116.42
594.429	14274.53
594.782	14458
595.135	14605.38
595.488	14399.99
595.841	14240.4
596.194	14102.08
596.547	13954.6
596.899	14011.59
597.252	14137.51
597.605	14159.38
597.957	14041.34
598.31	14161.09
598.662	14393.68
599.015	14474.77
599.367	14462.62
599.719	14436.89
600.072	14522.68
600.424	14664.83
600.776	14764.95
601.128	14818.94
601.48	14760.84
601.832	14720.61
602.184	14877.45
602.536	14910.05
602.888	15171.47
603.24	15327.31
603.592	15333.76
603.943	15108.53
604.295	14905.22
604.646	14848.11
604.998	14891.49
605.349	15045.9
605.701	14973.2
606.052	15024.34
606.404	14974.63
606.755	15010.25
607.106	15043.23
607.457	14957.6
607.808	15025.95
608.159	15025.31
608.51	15013.86
608.861	14995.8
609.212	14993.1
609.563	15221.23
609.914	15359.87
610.265	15456.18
610.615	15470.86
610.966	15559.73
611.316	15549.22
611.667	15577.72
612.017	15584.28
612.368	15406.79
612.718	15610.61
613.068	15641.83
613.419	15669.68
613.769	15681.9
614.119	15709.99
614.469	15721.48
614.819	15609.46
615.169	15599.64
615.519	15613.45
615.869	15529.24
616.219	15433.14
616.568	15487.95
616.918	15415.63
617.268	15570.95
617.617	15665.3
617.967	15705.39
618.316	15632.74
618.666	15613.73
619.015	15686.79
619.364	15727.85
619.714	15855.81
620.063	15878.83
620.412	15801.49
620.761	15715.96
621.11	15727.78
621.459	15698.07
621.808	15846.71
622.157	15945.7
622.506	16056.17
622.855	16180.42
623.203	16202.07
623.552	16170.91
623.901	16263.74
624.249	16174.36
624.598	16247.79
624.946	16170.01
625.295	16146.77
625.643	16219.25
625.991	16305.21
626.34	16215.1
626.688	16223.46
627.036	16377.19
627.384	16355.5
627.732	16430.97
628.08	16347.6
628.428	16303.85
628.776	16365.5
629.124	16366.71
629.471	16376.84
629.819	16378.23
630.167	16359.6
630.514	16433.3
630.862	16331.04
631.209	16481.77
631.557	16565.42
631.904	16563.92
632.251	16578.87
632.599	16559.09
632.946	16730.21
633.293	16829.27
633.64	16793.96
633.987	16797.82
634.334	16777.78
634.681	16742.62
635.028	16859.24
635.375	16876.74
635.722	16993.32
636.068	17061.61
636.415	16982.54
636.762	16994.19
637.108	17072.15
637.455	16974.44
637.801	17051.86
638.147	17143.5
638.494	17176.73
638.84	17347.08
639.186	17251.72
639.532	17252.6
639.878	17282.98
640.225	17360.84
640.571	17340.38
640.916	17347.57
641.262	17403.85
641.608	17382.77
641.954	17463.64
642.3	17501.5
642.645	17512.8
642.991	17525.73
643.337	17580.66
643.682	17585.73
644.028	17576.57
644.373	17609.43
644.718	17720.32
645.064	17740.98
645.409	17698
645.754	17806.9
646.099	17893.21
646.444	17899.54
646.789	17883.08
647.134	17887.83
647.479	17972.12
647.824	18018.91
648.169	17971.24
648.513	18014.35
648.858	18014.48
649.203	18112.88
649.547	18145.69
649.892	18094.48
650.236	18179.47
650.581	18120.38
650.925	18072.37
651.269	18039.54
651.613	18248.64
651.958	18269.86
652.302	18288.21
652.646	18221.71
652.99	18142.94
653.334	18286.11
653.678	18312.34
654.022	18391.8
654.365	18361.45
654.709	18498.84
655.053	18920.7
655.396	25239.11
655.74	36765.11
656.083	43488.19
656.427	43153.77
656.77	32146.7
657.114	24571.02
657.457	21205.03
657.8	19633.29
658.143	18994.43
658.486	18808.28
658.83	18700.59
659.173	18613.13
659.516	18653.71
659.858	18652.06
660.201	18561.86
660.544	18572.28
660.887	18653.65
661.229	18785.59
661.572	18737.26
661.915	18761.62
662.257	18785.45
662.6	18902.82
662.942	18855.29
663.284	18737.62
663.627	18679.29
663.969	18675.26
664.311	18759.3
664.653	18772.23
664.995	18795.3
665.337	18778.75
665.679	18714.15
666.021	18807.52
666.363	18692.51
666.705	18772.16
667.046	18754.48
667.388	18724.38
667.73	18754.79
668.071	18739.4
668.413	18715.74
668.754	18824.95
669.096	18818.41
669.437	18953.41
669.778	18791.41
670.119	18722.46
670.461	18731.38
670.802	18856.42
671.143	18812.84
671.484	18865.12
671.825	18911.69
672.165	18956.55
672.506	18904.32
672.847	18990.53
673.188	19008.44
673.528	18950.46
673.869	18900.63
674.21	18940.99
674.55	18966.06
674.89	18944.54
675.231	18944.19
675.571	18869.07
675.911	18892.79
676.252	19048.3
676.592	19139.57
676.932	19081.42
677.272	18972.36
677.612	19059.79
677.952	19085.73
678.292	19070.21
678.631	19022.2
678.971	18946.69
679.311	18994.98
679.651	18977.87
679.99	18980.19
680.33	19026.3
680.669	19066.25
681.009	19076.16
681.348	19170.13
681.687	19165.38
682.026	19202.01
682.366	19079.76
682.705	19167.37
683.044	19121.25
683.383	19145.31
683.722	19334
684.061	19296.77
684.4	19420.29
684.738	19409.73
685.077	19477.46
685.416	19361.22
685.754	19333.39
686.093	19356.63
686.431	19416.61
686.77	19160.13
687.108	19240.97
687.447	19285.05
687.785	19354.7
688.123	19253.26
688.461	19262.22
688.799	19165.27
689.137	19218.66
689.475	19167.18
689.813	19049.66
690.151	19135.49
690.489	19096.11
690.827	19147.62
691.164	19299.53
691.502	19388.38
691.84	19324.59
692.177	19300.18
692.515	19368.03
692.852	19321.36
693.189	19342.5
693.527	19269.71
693.864	19235.42
694.201	19189.64
694.538	19184.59
694.875	19141.48
695.212	19027.46
695.549	19124.81
695.886	19040.23
696.223	19093.95
696.56	19243.22
696.897	19119.93
697.233	19244.45
697.57	19332.66
697.906	19329.28
698.243	19276.31
698.579	19152.25
698.916	19281.04
699.252	19196.21
699.588	19160.71
699.924	19280.74
700.261	19253.89
700.597	19232.04
700.933	19213.12
701.269	19096.49
701.605	19230.9
701.941	19107.87
702.276	19155.88
702.612	19173.73
702.948	19230.07
703.283	19281.46
703.619	19138.37
703.954	19166.68
704.29	19076.59
704.625	19101.88
704.961	19061.29
705.296	19223.06
705.631	19235.31
705.966	19195.42
706.301	19230.92
706.637	19334.15
706.972	19560.63
707.306	19492.59
707.641	19373.03
707.976	19338.51
708.311	19296.26
708.646	19294.05
708.98	19133.87
709.315	19075.65
709.649	19087.89
709.984	19261.83
710.318	19122.46
710.653	19163.95
710.987	19111.27
711.321	19273.51
711.655	19169.3
711.989	19079.26
712.324	19075.93
712.658	19161.03
712.992	19234.51
713.325	19227.24
713.659	19221.85
713.993	19049.62
714.327	19009.66
714.66	19089.97
714.994	19009.49
715.328	19032.35
715.661	19085.09
715.994	19170.19
716.328	19007.16
716.661	19018.53
716.994	18950.79
717.328	18783.2
717.661	18884.32
717.994	18957.07
718.327	18889.57
718.66	18833.42
718.993	18919.34
719.325	18929.41
719.658	18883.63
719.991	18749.83
720.324	18744.42
720.656	18745.59
720.989	18826.38
721.321	18872.68
721.654	18870.66
721.986	18817.21
722.318	18752.19
722.651	18830.32
722.983	18615.11
723.315	18620.39
723.647	18646.86
723.979	18736.65
724.311	18724.76
724.643	18710.09
724.975	18686.76
725.307	18666.82
725.638	18720.72
725.97	18572.57
726.302	18697.33
726.633	18568.54
726.965	18643.21
727.296	18502.8
727.628	18432.01
727.959	18273.24
728.29	18331.83
728.621	18288.99
728.952	18360.89
729.284	18221.32
729.615	18322.55
729.945	18103.65
730.276	18093.76
730.607	18263.51
730.938	18317.98
731.269	18246.43
731.599	18260.09
731.93	18199.18
732.261	18069.63
732.591	18147.11
732.922	18202.15
733.252	17999.68
733.582	17881.46
733.912	17968.9
734.243	18102.05
734.573	18060.81
734.903	18159.75
735.233	17981.06
735.563	17959.23
735.893	18013.9
736.223	17900.01
736.552	17755.26
736.882	17656.28
737.212	17621.86
737.541	17599.35
737.871	17502.04
738.2	17407.21
738.53	17330.32
738.859	17318.75
739.188	17270.54
739.518	17278.7
739.847	17354.2
740.176	17235.18
740.505	17279.99
740.834	17287.66
741.163	17197.83
741.492	17020.84
741.821	16981.31
742.15	16989.09
742.478	17044.75
742.807	16854.06
743.136	16770.13
743.464	16658.13
743.793	16649.98
744.121	16645.88
744.449	16485.87
744.778	16465.51
745.106	16631.08
745.434	16644.5
745.762	16403.19
746.09	16429.08
746.418	16385.46
746.746	16333.24
747.074	16370.37
747.402	16469.19
747.73	16342.24
748.057	16248.44
748.385	16170.17
748.712	16163.6
749.04	16168.34
749.367	16169.31
749.695	16027.73
750.022	16083.61
750.349	16041.23
750.677	16004.71
751.004	15900.55
751.331	15762.87
751.658	15700
751.985	15638.32
752.312	15495.98
752.639	15531.84
752.966	15582.13
753.292	15436.48
753.619	15594.92
753.946	15539.51
754.272	15457.79
754.599	15507.49
754.925	15450.58
755.251	15390.52
755.578	15423.29
755.904	15428.45
756.23	15381.09
756.556	15420.19
756.882	15345.24
757.208	15158.99
757.534	15297.3
757.86	15388.01
758.186	15398.35
758.512	15114.05
758.838	14985.4
759.163	14963.12
759.489	15077.19
759.814	15033.28
760.14	15156.98
760.465	15045.78
760.791	14763.56
761.116	14783.64
761.441	14764.72
761.766	14776.87
762.092	14619.39
762.417	14399.23
762.742	14477.02
763.066	14465.34
763.391	14465.5
763.716	14376.82
764.041	14390.62
764.366	14294.06
764.69	14234.14
765.015	14295.08
765.339	14273.81
765.664	14227.1
765.988	14048.19
766.312	13993.74
766.637	13854.56
766.961	13724.97
767.285	13641.03
767.609	13503.01
767.933	13432.01
768.257	13571.98
768.581	13601.21
768.905	13698.16
769.229	13736.91
769.552	13679.89
769.876	13612.34
770.2	13422.75
770.523	13413.52
770.847	13407.08
771.17	13359.28
771.493	13392.01
771.817	13387.61
772.14	13266.78
772.463	13208.63
772.786	13181.89
773.109	13068.37
773.432	13018.82
773.755	12912.14
774.078	12831.39
774.401	12832.29
774.724	12742.8
775.046	12720.91
775.369	12742.69
775.692	12754.5
776.014	12681.5
776.336	12540.9
776.659	12495.85
776.981	12506.08
777.303	12510.3
777.626	12533.46
777.948	12512.59
778.27	12499.94
778.592	12454.31
778.914	12404.51
779.236	12388.97
779.557	12437.22
779.879	12483.1
780.201	12394.5
780.523	12379.41
780.844	12307.4
781.166	12385.51
781.487	12463.94
781.809	12482.76
782.13	12476.7
782.451	12358.45
782.772	12407.54
783.094	12320.47
783.415	12381.61
783.736	12345.79
784.057	12373.73
784.378	12324.32
784.698	12248.39
785.019	12359.49
785.34	12298.52
785.661	12393.29
785.981	12393.46
786.302	12366.43
786.622	12340.13
786.943	12421.59
787.263	12391.22
787.583	12512.27
787.903	12555.47
788.224	12461.71
788.544	12432.48
788.864	12424.81
789.184	12603.01
789.504	12599
789.824	12670.1
790.143	12581.5
790.463	12555.1
790.783	12537.64
791.102	12538.48
791.422	12559.08
791.741	12441.74
792.061	12384.22
792.38	12411.27
792.699	12357.18
793.019	12450.12
793.338	12390.08
793.657	12331.15
793.976	12480.23
794.295	12447.52
794.614	12473.67
794.933	12442.69
795.252	12468.68
795.57	12456.08
795.889	12440.06
796.208	12382.37
796.526	12168.75
796.845	12225.4
797.163	12229.44
797.482	12194.47
797.8	12076.84
798.118	11986.88
798.436	12005.01
798.754	11999.09
799.073	11985.06
799.391	12001.17
799.708	12021.24
800.026	11991.65
800.344	11966.95
800.662	11919.34
800.98	11843.82
801.297	11941.54
801.615	11949.46
801.932	11870.7
802.25	11695.82
802.567	11576.11
802.884	11602.45
803.202	11554.28
803.519	11571.32
803.836	11539.23
804.153	11457.96
804.47	11476.45
804.787	11462.39
805.104	11419.42
805.421	11472.1
805.737	11405.25
806.054	11193.65
806.371	11202.68
806.687	11147.56
807.004	11186.46
807.32	11189.94
807.637	11099.17
807.953	11042.4
808.269	10953.91
808.585	10992.96
808.902	10953.04
809.218	11038.49
809.534	11045.47
809.85	10942.49
810.165	10813.05
810.481	10742.35
810.797	10654.48
811.113	10694.24
811.428	10707.94
811.744	10666.07
812.059	10563.84
812.375	10470.78
812.69	10382.73
813.006	10326.08
813.321	10347.5
813.636	10395.85
813.951	10458.34
814.266	10404.72
814.581	10275.86
814.896	10161.79
815.211	10191.42
815.526	10252
815.841	10224.44
816.155	10178.45
816.47	10069.94
816.784	10091.35
817.099	10045.79
817.413	9984.28
817.728	9997.62
818.042	9930.62
818.356	9865.55
818.67	9738.16
818.985	9706.6
819.299	9719.34
819.613	9816.24
819.926	9737.34
820.24	9803.99
820.554	9832.9
820.868	9841.72
821.182	9708.91
821.495	9678.18
821.809	9598.32
822.122	9591.36
822.436	9623.57
822.749	9536.69
823.062	9422.31
823.376	9380.72
823.689	9344.56
824.002	9345.36
824.315	9332.66
824.628	9298.59
824.941	9268.91
825.254	9164.76
825.566	9058.58
825.879	9055.37
826.192	9076.53
826.504	9132.82
826.817	9154.86
827.129	9096.21
827.442	8945.69
827.754	8927.97
828.066	9004.14
828.379	8984.74
828.691	9030.73
829.003	8943.22
829.315	8915.17
829.627	8840.94
829.939	8779.54
830.251	8794.99
830.562	8799.23
830.874	8810.68
831.186	8768.21
831.497	8722.59
831.809	8604.85
832.12	8502.33
832.432	8481.68
832.743	8562.05
833.054	8589.48
833.365	8555.88
833.676	8451.14
833.988	8348.15
834.299	8257.08
834.61	8297.41
834.92	8346.11
835.231	8320.64
835.542	8241.85
835.853	8156.75
836.163	8085.95
836.474	8071.6
836.784	8051.61
837.095	8061.98
837.405	8059.98
837.715	8073.37
838.026	7980.82
838.336	7889.78
838.646	7845.24
838.956	7785.88
839.266	7824.56
839.576	7862.89
839.886	7839.53
840.195	7784.15
840.505	7653.97
840.815	7613.96
841.124	7606.57
841.434	7610.74
841.743	7571.46
842.053	7589.64
842.362	7517.51
842.671	7437.5
842.981	7404.64
843.29	7320.23
843.599	7323.68
843.908	7397.7
844.217	7399.27
844.526	7372.7
844.835	7318.77
845.143	7213.48
845.452	7092.64
845.761	7068.92
846.069	7032.75
846.378	7094.96
846.686	7084.41
846.995	7031.46
847.303	6933.65
847.611	6917.57
847.919	6849.84
848.227	6867.39
848.535	6851.95
848.843	6849.47
849.151	6782.41
849.459	6770.59
849.767	6676.18
850.075	6609.95
850.382	6571.82
850.69	6627.93
850.998	6683.82
851.305	6626.24
851.612	6589.37
851.92	6545.77
852.227	6541.02
852.534	6534.71
852.841	6542.26
853.148	6549.84
853.455	6601.47
853.762	6545.75
854.069	6512.12
854.376	6460.98
854.683	6437.72
854.99	6406.09
855.296	6400.63
855.603	6378.24
855.909	6363.81
856.216	6337.04
856.522	6253.87
856.828	6199.05
857.135	6155.69
857.441	6134.72
857.747	6117.32
858.053	6122.42
858.359	6038.99
858.665	6037.02
858.971	5969.06
859.276	5907.05
859.582	5877.26
859.888	5882.59
860.193	5877.65
860.499	5902.78
860.804	5894.25
861.11	5809.82
861.415	5753.82
861.72	5695.72
862.026	5648.59
862.331	5652.49
862.636	5680.74
862.941	5694.6
863.246	5683.39
863.551	5649.43
863.855	5592.96
864.16	5560.24
864.465	5530.94
864.769	5529.98
865.074	5511.13
865.378	5476.94
865.683	5434.84
865.987	5412.78
866.291	5321.49
866.596	5285.12
866.9	5235.03
867.204	5227.34
867.508	5234.31
867.812	5278.31
868.116	5278.71
868.42	5243.98
868.723	5183.74
869.027	5156.41
869.331	5121.86
869.634	5122.03
869.938	5085.88
870.241	5115.37
870.544	5108.65
870.848	5057.87
871.151	4980.01
871.454	4917.61
871.757	4879.64
872.06	4878.94
872.363	4864.98
872.666	4872.34
872.969	4830.44
873.272	4785.32
873.574	4745.49
873.877	4719.83
874.18	4666.66
874.482	4639.86
874.785	4663.51
875.087	4635.33
875.389	4608.57
875.692	4585.93
875.994	4564.19
876.296	4529.5
876.598	4507.22
876.9	4463.78
877.202	4459.6
877.504	4480.77
877.805	4485.41
878.107	4485.96
878.409	4437.01
878.71	4419.88
879.012	4370.35
879.313	4310.76
879.615	4335.57
879.916	4301.66
880.217	4272.31
880.518	4267.83
880.82	4259.04
881.121	4208.92
881.422	4168.79
881.723	4124.61
882.023	4077.44
882.324	4076.76
882.625	4071.02
882.926	4084.65
883.226	4100.83
883.527	4012.77
883.827	3953.6
884.128	3923.37
884.428	3941.43
884.728	3930.55
885.028	3949.84
885.328	3922.46
885.629	3888.65
885.929	3856.14
886.228	3802.68
886.528	3746.28
886.828	3711.64
887.128	3722.02
887.427	3712.95
887.727	3712.9
888.027	3693.79
888.326	3688.28
888.625	3655.11
888.925	3581.13
889.224	3556.84
889.523	3541.58
889.822	3540.94
890.121	3557.44
890.42	3556.77
890.719	3567.14
891.018	3509.99
891.317	3499.85
891.616	3488.53
891.914	3476.26
892.213	3468.78
892.512	3460.02
892.81	3474.53
893.108	3493.41
893.407	3485.34
893.705	3475.72
894.003	3422.64
894.301	3375.17
894.599	3362.21
894.897	3384.08
895.195	3388.91
895.493	3389.33
895.791	3425.87
896.089	3440.93
896.386	3408.64
896.684	3390.96
896.981	3363.09
897.279	3327.98
897.576	3353.15
897.874	3347.25
898.171	3401
898.468	3422.17
898.765	3396.48
899.062	3374.26
899.359	3317.72
899.656	3262.23
899.953	3234.76
900.25	3246.26
900.547	3262.51
900.843	3281.8
901.14	3299.44
901.436	3297.43
901.733	3283.27
902.029	3262.69
902.325	3239.72
902.622	3200.1
902.918	3228.67
903.214	3252.35
903.51	3253.32
903.806	3271.69
904.102	3255.85
904.398	3226.83
904.694	3181.09
904.989	3176.56
905.285	3146.86
905.581	3148.32
905.876	3174.42
906.171	3186.6
906.467	3187.96
906.762	3169.37
907.057	3130.52
907.353	3119.52
907.648	3097.54
907.943	3096.77
908.238	3097.29
908.533	3092.98
908.827	3105.86
909.122	3104.12
909.417	3101.23
909.711	3092.2
910.006	3058.09
910.301	3007.81
910.595	2992.89
910.889	2983.86
911.184	2953.16
911.478	2961.56
911.772	2990.32
912.066	2986.19
912.36	2968.73
912.654	2935.05
912.948	2901.9
913.242	2884.92
913.536	2853.1
913.829	2843.06
914.123	2834.38
914.416	2809.75
914.71	2820.38
915.003	2825.25
915.297	2782.59
915.59	2725.11
915.883	2684.98
916.176	2669.59
916.469	2660.68
916.762	2669.19
917.055	2667.43
917.348	2676.24
917.641	2679.33
917.934	2646.04
918.226	2616.03
918.519	2583.37
918.811	2564.15
919.104	2559.02
919.396	2566.41
919.689	2569.97
919.981	2567.08
920.273	2544.38
920.565	2527.64
920.857	2494.49
921.149	2475.61
921.441	2465.42
921.733	2456.36
922.025	2430.99
922.316	2418.88
922.608	2423.23
922.9	2424.74
923.191	2422.81
923.483	2418.69
923.774	2364.59
924.065	2331.73
924.357	2290.63
924.648	2267.88
924.939	2268.37
925.23	2276.58
925.521	2279.46
925.812	2272.06
926.102	2252.59
926.393	2225.51
926.684	2209.63
926.975	2182.59
927.265	2157.78
927.556	2147.07
927.846	2132.9
928.136	2133.84
928.427	2131.19
928.717	2123.28
929.007	2111.2
929.297	2075.61
929.587	2049.92
929.877	2036.32
930.167	2023.91
930.457	2003.6
930.746	1977.99
931.036	1977.52
931.325	1967.72
931.615	1966.24
931.904	1961.97
932.194	1923.48
932.483	1909.61
932.772	1901.31
933.062	1880.74
933.351	1863.13
933.64	1838.48
933.929	1842.1
934.218	1842.29
934.506	1838.14
934.795	1833.5
935.084	1816.95
935.372	1790.99
935.661	1768.68
935.949	1736.94
936.238	1719.55
936.526	1686.46
936.815	1677.56
937.103	1673.4
937.391	1676.83
937.679	1679.33
937.967	1676.4
938.255	1662.16
938.543	1648.38
938.831	1632.34
939.118	1623.04
939.406	1611.22
939.693	1599.01
939.981	1588.85
940.268	1581.01
940.556	1566.71
940.843	1556.46
941.13	1548.06
941.418	1539.31
941.705	1525.81
941.992	1509.12
942.279	1487.25
942.566	1470.43
942.852	1454.12
943.139	1446.09
943.426	1438.05
943.712	1435.19
943.999	1420.87
944.285	1412.87
944.572	1388.69
944.858	1372.35
945.144	1361.2
945.431	1344.19
945.717	1337.17
946.003	1338.94
946.289	1331.45
946.575	1323.19
946.861	1307.58
947.146	1294.21
947.432	1282.57
947.718	1263.89
948.003	1247.47
948.289	1231.29
948.574	1215.05
948.86	1209.7
949.145	1215.47
949.43	1210.83
949.715	1212.12
950	1207.05
950.285	1200.92
950.57	1195.88
950.855	1180.64
951.14	1165.94
951.425	1159.55
951.709	1147.17
951.994	1139.1
952.278	1139.46
952.563	1139.13
952.847	1133.25
953.132	1132.76
953.416	1130.61
953.7	1119.77
953.984	1108.98
954.268	1094.97
954.552	1083.24
954.836	1068.29
955.12	1060.42
955.404	1055.94
955.687	1050.36
955.971	1046.08
956.254	1040.23
956.538	1026.33
956.821	1012.78
957.105	999.44
957.388	987.75
957.671	977.13
957.954	975.47
958.237	970.35
958.52	963.75
958.803	956.32
959.086	951.52
959.369	950.32
959.652	947.29
959.934	942.07
960.217	936.02
960.499	924.82
960.782	914.79
961.064	903.58
961.346	901.62
961.629	892.6
961.911	882.97
962.193	882.69
962.475	872.71
962.757	868.68
963.039	863.11
963.32	859.63
963.602	847.77
963.884	839.07
964.165	833.2
964.447	830.97
964.728	822.31
965.01	817.53
965.291	808.84
965.572	806.05
965.853	798.93
966.134	788.92
966.415	782.88
966.696	780.69
966.977	771.03
967.258	770.41
967.539	766.57
967.819	762.05
968.1	758.54
968.38	755.15
968.661	752.87
968.941	747.07
969.222	743.72
969.502	737.01
969.782	729.47
970.062	721.18
970.342	714.18
970.622	706.68
970.902	698.99
971.182	696.76
971.462	695.13
971.741	693.13
972.021	687.69
972.3	682.88
972.58	678.67
972.859	678.56
973.138	670.92
973.418	665.88
973.697	660.58
973.976	653.27
974.255	649.38
974.534	647.33
974.813	642.14
975.092	638.44
975.37	636.64
975.649	632.89
975.928	629.29
976.206	627.11
976.485	621.81
976.763	616.79
977.041	609.31
977.32	604.66
977.598	600.13
977.876	597.42
978.154	594.61
978.432	591.7
978.71	591.1
978.988	586.07
979.265	584.38
979.543	583.21
979.821	576.21
980.098	572.82
980.376	566.13
980.653	561.51
980.93	561.2
981.208	559.44
981.485	557.52
981.762	552.44
982.039	554.03
982.316	550.84
982.593	548.2
982.87	544.83
983.146	540.39
983.423	536.79
983.7	534.13
983.976	532.06
984.253	533.04
984.529	532.74
984.805	528.22
985.082	524.46
985.358	525.54
985.634	521.33
985.91	518.75
986.186	512.75
986.462	510.95
986.738	507.26
987.013	501.44
987.289	495.53
987.565	496.88
987.84	497.23
988.116	495.47
988.391	495.38
988.666	492.15
988.942	491.34
989.217	489.59
989.492	483.6
989.767	481.65
990.042	476.03
990.317	474.12
990.592	471.71
990.866	469.52
991.141	468.06
991.416	464.85
991.69	462.14
991.964	460.55
992.239	458.98
992.513	456.63
992.787	455.31
993.062	454.35
993.336	448.93
993.61	449.37
993.884	442.85
994.158	444.12
994.431	441.38
994.705	439.65
994.979	440.05
995.252	439.22
995.526	439.93
995.799	435.37
996.073	434.08
996.346	433.29
996.619	432.99
996.892	428.28
997.165	428.19
997.438	426.61
997.711	425.04
997.984	422.81
998.257	424.66
998.53	422.34
998.802	422.6
999.075	419.54
999.347	418.17
999.62	416.01
999.892	417.63
1000.165	415.65
1000.437	412.8
1000.709	412.15
1000.981	407.28
1001.253	405.64
1001.525	404.53
1001.797	404.04
1002.068	402.21
1002.34	402.35
1002.612	401.59
1002.883	402.56
1003.155	401.02
1003.426	398.57
1003.698	397.17
1003.969	394.92
1004.24	396.51
1004.511	393.18
1004.782	394.93
1005.053	391.98
1005.324	391.49
1005.595	390.03
1005.866	388.41
1006.136	390.04
1006.407	388.88
1006.678	389.37
1006.948	387.12
1007.218	387.11
1007.489	384.53
1007.759	383.73
1008.029	383.89
1008.299	381.16
1008.569	381.91
1008.839	383.16
1009.109	380.01
1009.379	380.54
1009.649	380.42
1009.918	379.95
1010.188	380.37
1010.458	379.03
1010.727	376.34
1010.996	375.83
1011.266	376.35
1011.535	375.67
1011.804	375.81
1012.073	372.2
1012.342	370.97
1012.611	373.34
1012.88	373.15
1013.149	370.91
1013.417	370.68
1013.686	369.04
1013.955	370.41
1014.223	369.83
1014.492	370.31
1014.76	368.39
1015.028	368.6
1015.296	370.02
1015.565	366.77
1015.833	367.19
1016.101	365.94
1016.368	365.93
1016.636	366.36
1016.904	363.89
1017.172	365.57
1017.439	363.91
1017.707	364.1
1017.974	362.92
1018.242	362.95
1018.509	363.96
1018.776	362.68
1019.044	363.98
1019.311	364
1019.578	362.65
1019.845	360.39
1020.112	362.53
1020.378	362.53
1020.645	362.53
