Data from 190626_Kr_41K_film_FLMS138901_17-56-48-252.txt Node
Date: Wed Jun 26 17:56:48 EDT 2019
User: pSAM
Spectrometer: FLMS13890
Trigger mode: 0
Integration Time (sec): 5.000000E-3
Scans to average: 1000
Electric dark correction enabled: true
Nonlinearity correction enabled: false
Boxcar width: 0
XAxis mode: Wavelengths
Number of Pixels in Spectrum: 2048
>>>>>Begin Spectral Data<<<<<
342.097	-59.65
342.483	-59.65
342.868	-59.65
343.254	-100.33
343.639	-103.84
344.025	-102.89
344.41	-97.47
344.796	-89.58
345.181	-80.56
345.567	-68.58
345.952	-53.13
346.337	-34.02
346.722	-19.67
347.107	-0.93
347.493	18.1
347.878	38.61
348.263	60.12
348.648	78.51
349.033	97.43
349.418	117.78
349.802	136.26
350.187	157.02
350.572	174.66
350.957	233.62
351.342	367.54
351.726	392.81
352.111	406.62
352.495	422.15
352.88	433.47
353.264	449
353.649	463.5
354.033	472.19
354.418	482.03
354.802	492.4
355.186	501.53
355.57	509.95
355.955	516.86
356.339	520.16
356.723	526.92
357.107	532.27
357.491	565.08
357.875	539.68
358.259	541.15
358.643	543.94
359.026	544.05
359.41	544.21
359.794	548.91
360.178	550.94
360.561	550.47
360.945	547.94
361.329	551.08
361.712	550.1
362.096	550.97
362.479	550.5
362.862	551.65
363.246	550.56
363.629	549.02
364.012	548.45
364.396	551.85
364.779	550.18
365.162	550.65
365.545	549.23
365.928	550.76
366.311	553.28
366.694	554.49
367.077	556.57
367.46	558.97
367.843	560.38
368.226	561.3
368.608	561.7
368.991	563.68
369.374	566.01
369.756	564.41
370.139	563.91
370.521	563.54
370.904	570.04
371.286	567.94
371.669	570.95
372.051	571.75
372.433	570.99
372.816	573.52
373.198	576.84
373.58	577.72
373.962	580.79
374.344	581.62
374.726	586.97
375.108	586.2
375.49	591.1
375.872	591.02
376.254	590.85
376.636	594.08
377.018	593.75
377.399	592.94
377.781	594.88
378.163	599.28
378.544	600.5
378.926	607.31
379.307	612.75
379.689	616.99
380.07	617.98
380.452	621.11
380.833	623.09
381.214	627.14
381.596	632.56
381.977	637.18
382.358	643.13
382.739	651.19
383.12	654.09
383.501	651.46
383.882	653.77
384.263	652.83
384.644	652.84
385.025	659.69
385.406	660.18
385.787	665.46
386.167	668.1
386.548	671.76
386.929	677.04
387.309	684.17
387.69	696.12
388.07	703.12
388.451	707.03
388.831	711.15
389.211	707.37
389.592	701.61
389.972	700.56
390.352	700.76
390.733	704.52
391.113	705.46
391.493	710.65
391.873	719.54
392.253	724.78
392.633	739.9
393.013	746.89
393.393	752.83
393.772	747.78
394.152	754.55
394.532	754.56
394.912	761.95
395.291	755.76
395.671	758.04
396.05	755.03
396.43	753.85
396.809	754.77
397.189	763.49
397.568	771.13
397.948	776.82
398.327	786.63
398.706	795.08
399.085	797.98
399.465	798.35
399.844	794.47
400.223	785.58
400.602	790.47
400.981	789.69
401.36	790.64
401.739	788.51
402.117	794.19
402.496	789.73
402.875	793.98
403.254	800.48
403.632	800.38
404.011	809.6
404.39	819.77
404.768	826.52
405.147	837.69
405.525	846.44
405.903	851
406.282	856.91
406.66	850.25
407.038	840.27
407.417	837.04
407.795	835.71
408.173	842.6
408.551	843.61
408.929	849.51
409.307	855.26
409.685	862.11
410.063	867.13
410.441	864.61
410.818	868.89
411.196	872.24
411.574	882.7
411.952	883.57
412.329	895.98
412.707	916.83
413.084	924.64
413.462	929.97
413.839	933.09
414.217	923.93
414.594	922.85
414.971	925.02
415.349	929.54
415.726	933.79
416.103	926.15
416.48	927.69
416.857	935.3
417.234	949.23
417.611	949.9
417.988	953.55
418.365	941.55
418.742	948.08
419.119	953.68
419.495	955.98
419.872	957.35
420.249	981.87
420.625	989.35
421.002	1004.45
421.379	1015.73
421.755	1034.23
422.131	1047.77
422.508	1048.79
422.884	1055.99
423.26	1063.73
423.637	1078.43
424.013	1056.28
424.389	1049.06
424.765	1039.39
425.141	1041.81
425.517	1036.07
425.893	1033.95
426.269	1031.47
426.645	1034.92
427.021	1067.37
427.397	1082.9
427.772	1097.13
428.148	1097.3
428.524	1098.88
428.899	1086.24
429.275	1099.4
429.651	1111.99
430.026	1136.41
430.401	1149.87
430.777	1149.04
431.152	1146.84
431.527	1139.78
431.903	1137.72
432.278	1128.2
432.653	1129.94
433.028	1138.63
433.403	1164.5
433.778	1199.11
434.153	1198.08
434.528	1194.93
434.903	1192.7
435.278	1200.79
435.653	1203.83
436.027	1208.67
436.402	1218.2
436.777	1230.09
437.151	1233.66
437.526	1245.9
437.9	1249.11
438.275	1263.63
438.649	1262.29
439.023	1273.22
439.398	1273.72
439.772	1270.36
440.146	1277.78
440.52	1291.19
440.895	1310.34
441.269	1350.01
441.643	1378.63
442.017	1376.84
442.391	1370.66
442.765	1366.55
443.138	1354.16
443.512	1376.28
443.886	1381.38
444.26	1389.65
444.633	1395.62
445.007	1398.72
445.38	1401.36
445.754	1407.72
446.127	1417.93
446.501	1415.06
446.874	1413.09
447.248	1405.51
447.621	1418.34
447.994	1411.25
448.367	1418
448.741	1423.64
449.114	1418.12
449.487	1434.92
449.86	1442.1
450.233	1442.41
450.606	1434.9
450.978	1433.6
451.351	1451.07
451.724	1437.04
452.097	1437.73
452.469	1448.94
452.842	1449.88
453.215	1456.6
453.587	1455.62
453.96	1463.72
454.332	1463.2
454.704	1479.81
455.077	1488.13
455.449	1506.76
455.821	1504.94
456.194	1525.23
456.566	1520.91
456.938	1536.35
457.31	1551.61
457.682	1582.72
458.054	1593.85
458.426	1613.69
458.798	1625.34
459.17	1634.88
459.541	1634.67
459.913	1615.43
460.285	1620.95
460.656	1624.03
461.028	1613.24
461.399	1638.98
461.771	1634.18
462.142	1648.45
462.514	1667.21
462.885	1688.25
463.256	1727.47
463.628	1743.96
463.999	1781.48
464.37	1812.36
464.741	1824.4
465.112	1811.95
465.483	1828.73
465.854	1839.6
466.225	1829.35
466.596	1827.9
466.967	1849.84
467.338	1851.49
467.708	1879.48
468.079	1886.87
468.45	1902.72
468.82	1915.63
469.191	1921.96
469.561	1918.75
469.932	1928.26
470.302	1917.01
470.673	1947
471.043	1963.99
471.413	1990.21
471.783	2019.99
472.154	2051.7
472.524	2083.52
472.894	2135.31
473.264	2169.96
473.634	2173.86
474.004	2178.41
474.374	2207.08
474.743	2225.6
475.113	2273.5
475.483	2298.37
475.853	2333.19
476.222	2351.56
476.592	2399.72
476.961	2387.45
477.331	2406.73
477.7	2445.33
478.07	2508.43
478.439	2535.47
478.808	2565.68
479.178	2567.02
479.547	2608.83
479.916	2634.37
480.285	2700.95
480.654	2715.89
481.023	2755.14
481.392	2785.3
481.761	2817.15
482.13	2849.79
482.499	2889.9
482.867	2920.2
483.236	2986.56
483.605	3046.69
483.973	3084.96
484.342	3160.37
484.71	3202.54
485.079	3274.53
485.447	3692.75
485.816	4128.76
486.184	4369.2
486.552	4181.39
486.921	3831.42
487.289	3603.43
487.657	3524.63
488.025	3502.7
488.393	3508.61
488.761	3542.09
489.129	3591.79
489.497	3622.68
489.865	3706.36
490.233	3735.99
490.6	3793.85
490.968	3786.29
491.336	3815.81
491.703	3831.88
492.071	3866.59
492.438	3900.36
492.806	3941.63
493.173	4010.23
493.541	4045.85
493.908	4059.08
494.275	4070.97
494.642	4079.06
495.01	4098.24
495.377	4101.9
495.744	4108.62
496.111	4200.43
496.478	4285.05
496.845	4303.49
497.211	4308.66
497.578	4313.83
497.945	4342.54
498.312	4393.97
498.678	4461.68
499.045	4530.22
499.412	4537.58
499.778	4552.55
500.145	4557.75
500.511	4556.91
500.878	4612.05
501.244	4660.21
501.61	4693.86
501.976	4708.17
502.343	4721.36
502.709	4783.69
503.075	4794.12
503.441	4794.62
503.807	4821.35
504.173	4814.56
504.539	4826.41
504.905	4872.67
505.27	4913.26
505.636	4934.28
506.002	4995.6
506.367	5004.54
506.733	5018.1
507.099	5006.52
507.464	5034.23
507.829	5049.32
508.195	5124.72
508.56	5146.83
508.926	5139.52
509.291	5143.62
509.656	5160.53
510.021	5189.98
510.386	5215.54
510.751	5237.06
511.116	5275.01
511.481	5314.29
511.846	5348.33
512.211	5352.37
512.576	5385.87
512.941	5406.09
513.305	5419.15
513.67	5465.17
514.035	5463.19
514.399	5518.75
514.764	5514.79
515.128	5542.22
515.493	5547.72
515.857	5586.99
516.221	5581.44
516.585	5634.22
516.95	5657.58
517.314	5673.61
517.678	5700.24
518.042	5704.05
518.406	5765.63
518.77	5779.87
519.134	5799.91
519.498	5867.74
519.862	5870.91
520.225	5857.9
520.589	5910.06
520.953	5927.34
521.316	5956.01
521.68	5972.8
522.043	6008.23
522.407	5988.84
522.77	6024.87
523.134	6091.56
523.497	6094.36
523.86	6149.8
524.223	6176.88
524.587	6196.15
524.95	6213.17
525.313	6264.17
525.676	6295.89
526.039	6321.08
526.402	6343.01
526.765	6415.2
527.127	6437.9
527.49	6466.56
527.853	6510.66
528.215	6494.49
528.578	6573.32
528.941	6593.65
529.303	6673.56
529.666	6703.55
530.028	6751.18
530.39	6763.21
530.753	6783.44
531.115	6800.13
531.477	6849.31
531.839	6873.52
532.201	6907.01
532.564	6960.45
532.926	6990.08
533.287	7091.89
533.649	7130.39
534.011	7207.26
534.373	7238.26
534.735	7275.36
535.097	7311.38
535.458	7354.07
535.82	7397.59
536.181	7399.32
536.543	7405.65
536.904	7406.41
537.266	7510.47
537.627	7574.27
537.988	7608.7
538.35	7650.77
538.711	7719.38
539.072	7775.75
539.433	7761.43
539.794	7845.22
540.155	7871.32
540.516	7928.63
540.877	7950.5
541.238	7990.3
541.599	8048.85
541.959	8108.31
542.32	8190.34
542.681	8251.69
543.041	8259.48
543.402	8276.85
543.762	8293.89
544.123	8263.76
544.483	8328.73
544.844	8414.37
545.204	8446.33
545.564	8455.66
545.924	8489.76
546.284	8488.89
546.644	8493.34
547.004	8559.73
547.364	8652.58
547.724	8713.09
548.084	8735.95
548.444	8817.51
548.804	8813.68
549.164	8801.07
549.523	8796.23
549.883	8832.4
550.242	8837.55
550.602	8898.77
550.961	8931.17
551.321	8927.7
551.68	8957.94
552.04	9006.53
552.399	9110.62
552.758	9127.91
553.117	9108.98
553.476	9221.22
553.835	9280.63
554.194	9330.81
554.553	9293.84
554.912	9291.73
555.271	9355.48
555.63	9435.79
555.989	9491.97
556.347	9497.28
556.706	9503.81
557.065	9493.18
557.423	9525.39
557.782	9564.7
558.14	9582.55
558.499	9636.46
558.857	9668.36
559.215	9663.37
559.573	9728.42
559.932	9777.65
560.29	9861.08
560.648	9860.14
561.006	9909.67
561.364	9946.51
561.722	9952.05
562.08	10026.49
562.438	9957.55
562.795	10051.93
563.153	10114.85
563.511	10102.64
563.868	10184.13
564.226	10238.82
564.583	10277.29
564.941	10270.43
565.298	10318.72
565.656	10288.75
566.013	10358.43
566.37	10388.92
566.727	10485.65
567.085	10622.37
567.442	10738.51
567.799	10823.33
568.156	10856.78
568.513	10939.17
568.87	11063.84
569.226	11240.28
569.583	11461.64
569.94	11561.83
570.297	11686.49
570.653	11672.05
571.01	11771.87
571.366	11979.76
571.723	12105.76
572.079	12074.2
572.436	12034.13
572.792	11992.2
573.148	12163.86
573.505	12380.92
573.861	12688.07
574.217	12806.63
574.573	12828.52
574.929	12782.6
575.285	12724.02
575.641	12822.67
575.997	12842.09
576.352	12937.97
576.708	12972.45
577.064	13123.84
577.42	13352.17
577.775	13639.18
578.131	13777.24
578.486	13654.72
578.842	13404.29
579.197	13423.59
579.552	13527.55
579.908	13770.1
580.263	14033.78
580.618	13862.94
580.973	13981.19
581.328	14500.91
581.683	15100.7
582.038	15456.55
582.393	14919.53
582.748	14338.81
583.103	13793.68
583.458	13516.28
583.812	13450.28
584.167	13725.6
584.522	14020.72
584.876	14360.37
585.231	14474.65
585.585	14426.29
585.939	14232.15
586.294	14111.99
586.648	14024.77
587.002	13946.94
587.356	14153.02
587.711	14469.82
588.065	14541.3
588.419	14620.05
588.773	14475.02
589.127	14194.6
589.48	14117.31
589.834	13828.42
590.188	13835.76
590.542	13840.76
590.895	13733.28
591.249	13880.26
591.603	13760.47
591.956	13767.88
592.309	13886.87
592.663	14116.56
593.016	14489.78
593.369	14738.63
593.723	14650.24
594.076	14528.11
594.429	14565.57
594.782	14717.19
595.135	14903.87
595.488	14960.07
595.841	14801.2
596.194	14535.63
596.547	14434.81
596.899	14418.48
597.252	14428.85
597.605	14578.7
597.957	14593.83
598.31	14603.68
598.662	14697.65
599.015	14740.22
599.367	14860.12
599.719	14844.81
600.072	14820.31
600.424	14856.2
600.776	15018.52
601.128	15105.54
601.48	15136.71
601.832	15172.13
602.184	15138.09
602.536	15221.7
602.888	15343.22
603.24	15559.7
603.592	15708.74
603.943	15613.88
604.295	15414.16
604.646	15192.8
604.998	15113.38
605.349	15230.33
605.701	15323.52
606.052	15458.06
606.404	15456.43
606.755	15397.25
607.106	15429.83
607.457	15370.95
607.808	15388.7
608.159	15380.57
608.51	15384.2
608.861	15538.94
609.212	15415.8
609.563	15505.23
609.914	15633
610.265	15720.37
610.615	15838.64
610.966	15875.08
611.316	15891.07
611.667	15994.16
612.017	15995.24
612.368	15750.37
612.718	15981.64
613.068	16036.21
613.419	16108.48
613.769	16181.99
614.119	16147.39
614.469	16218.17
614.819	16097.85
615.169	15983.67
615.519	16067.63
615.869	16044.03
616.219	16052.99
616.568	15909.06
616.918	15812.32
617.268	16031.16
617.617	16059.67
617.967	16086.65
618.316	15974.27
618.666	15952.99
619.015	15903.77
619.364	15925.49
619.714	16195.52
620.063	16172.72
620.412	16265.18
620.761	16266.91
621.11	16275.55
621.459	16211.95
621.808	16319.09
622.157	16440.49
622.506	16499.25
622.855	16572.92
623.203	16624.76
623.552	16644.77
623.901	16761.22
624.249	16690.49
624.598	16834.23
624.946	16712.9
625.295	16665.95
625.643	16602.62
625.991	16690.93
626.34	16613.01
626.688	16676.52
627.036	16738.82
627.384	16738.85
627.732	16816.93
628.08	16876.07
628.428	16852.73
628.776	16880.28
629.124	16883.02
629.471	16917.59
629.819	16951.79
630.167	16904.53
630.514	16899.5
630.862	16844.28
631.209	16843.33
631.557	16949.89
631.904	17020.25
632.251	17039.76
632.599	16993.04
632.946	17087.65
633.293	17136.68
633.64	17076.58
633.987	17093.43
634.334	17064.68
634.681	17081.57
635.028	17150.75
635.375	17166.69
635.722	17282.33
636.068	17384.62
636.415	17468.91
636.762	17529.27
637.108	17534.3
637.455	17539.5
637.801	17527.2
638.147	17609.28
638.494	17581.37
638.84	17750.61
639.186	17603.9
639.532	17549.19
639.878	17673.72
640.225	17723.8
640.571	17793.17
640.916	17746.01
641.262	17797.13
641.608	17757.08
641.954	17801.61
642.3	17776.48
642.645	17814.76
642.991	17880.05
643.337	17923.8
643.682	17898.9
644.028	18007.09
644.373	18026.35
644.718	17960.44
645.064	17984.02
645.409	18036.39
645.754	18097.3
646.099	18205.27
646.444	18176.65
646.789	18225.78
647.134	18164.6
647.479	18347.05
647.824	18373.98
648.169	18280.85
648.513	18364.91
648.858	18295.03
649.203	18375.03
649.547	18438.68
649.892	18464.14
650.236	18592.05
650.581	18515.02
650.925	18426.9
651.269	18408.1
651.613	18593.5
651.958	18629.84
652.302	18673.62
652.646	18572.74
652.99	18496.37
653.334	18670.3
653.678	18581.27
654.022	18702
654.365	18628.15
654.709	18679.05
655.053	18737.69
655.396	19184.08
655.74	24485.41
656.083	35332.95
656.427	42859.43
656.77	43965.43
657.114	34212.23
657.457	25283.51
657.8	21404.18
658.143	19843.7
658.486	19207.8
658.83	18994.7
659.173	18839.29
659.516	18909.72
659.858	19008.72
660.201	19021.61
660.544	18899.77
660.887	18943.12
661.229	19018.59
661.572	19041.23
661.915	19103.23
662.257	19029.24
662.6	19075.72
662.942	19026.49
663.284	18974.6
663.627	19062.08
663.969	19100.74
664.311	19077.72
664.653	18982.41
664.995	19052.07
665.337	18959.24
665.679	18927.74
666.021	19002.13
666.363	19047.84
666.705	19076.5
667.046	19113.96
667.388	19014.75
667.73	18975.78
668.071	19012.59
668.413	18956.87
668.754	18941.9
669.096	18904.92
669.437	19219.73
669.778	19241.46
670.119	19185.96
670.461	19218.24
670.802	19254.85
671.143	19224.56
671.484	19305.81
671.825	19261.59
672.165	19281.11
672.506	19274.7
672.847	19292.3
673.188	19214.26
673.528	19122.92
673.869	19111.97
674.21	19144.71
674.55	19113.69
674.89	19085.26
675.231	19053.36
675.571	19084.42
675.911	19142.39
676.252	19245.25
676.592	19353.11
676.932	19170.07
677.272	19000.66
677.612	19119.35
677.952	19152.57
678.292	19257.54
678.631	19224.88
678.971	19237.46
679.311	19296.12
679.651	19215.18
679.99	19325.2
680.33	19305.03
680.669	19233.36
681.009	19111.04
681.348	19294.26
681.687	19375.99
682.026	19349.47
682.366	19152.29
682.705	19157.54
683.044	19188.13
683.383	19165.46
683.722	19248.62
684.061	19057.08
684.4	19239.67
684.738	19333.55
685.077	19402.68
685.416	19351.57
685.754	19394.25
686.093	19418.32
686.431	19398.64
686.77	19204.39
687.108	19184.2
687.447	19075.76
687.785	19313.18
688.123	19229.94
688.461	19255.6
688.799	19077.77
689.137	19058.85
689.475	19112.24
689.813	19086.37
690.151	19275.34
690.489	19272.64
690.827	19278.07
691.164	19294.49
691.502	19267.27
691.84	19188.83
692.177	19314.44
692.515	19222.59
692.852	19149.83
693.189	19247.68
693.527	19220.17
693.864	19219.49
694.201	19245.7
694.538	19166.49
694.875	19083.43
695.212	18975.24
695.549	19031.27
695.886	19150.3
696.223	19276.62
696.56	19255.73
696.897	19132.61
697.233	19177.79
697.57	19264.83
697.906	19391.59
698.243	19520.33
698.579	19253.38
698.916	19275.76
699.252	19155.59
699.588	19213.27
699.924	19260.14
700.261	19112.98
700.597	19024.16
700.933	18993.99
701.269	19051.06
701.605	19128.07
701.941	18964.27
702.276	19038.04
702.612	18964.23
702.948	18967.73
703.283	18982.54
703.619	18944.71
703.954	19104.33
704.29	19067.34
704.625	19220.94
704.961	19126.12
705.296	19180.21
705.631	19032.06
705.966	19048.84
706.301	19109.85
706.637	19168.99
706.972	19356.07
707.306	19300.68
707.641	19218.89
707.976	19116.15
708.311	19200.24
708.646	19270.66
708.98	19085.25
709.315	19083.23
709.649	19109.21
709.984	19117.96
710.318	19100.61
710.653	19094.04
710.987	18999.95
711.321	19129.07
711.655	19100.74
711.989	19018.64
712.324	18867.68
712.658	18861.45
712.992	19019.13
713.325	19086.89
713.659	19192.59
713.993	19065.93
714.327	19015.31
714.66	19046.88
714.994	18968.42
715.328	19051.95
715.661	19015.71
715.994	18972.32
716.328	18927.97
716.661	19033.6
716.994	18913.91
717.328	18759.19
717.661	18743.33
717.994	18827.82
718.327	18808.46
718.66	18732.97
718.993	18716.53
719.325	18573.68
719.658	18621.36
719.991	18704.11
720.324	18755.02
720.656	18569.03
720.989	18552.6
721.321	18538.79
721.654	18470.22
721.986	18536.53
722.318	18468.17
722.651	18519.67
722.983	18397.57
723.315	18417.49
723.647	18493.03
723.979	18499.75
724.311	18607.41
724.643	18558.56
724.975	18439.68
725.307	18281.23
725.638	18410.96
725.97	18329.13
726.302	18469.03
726.633	18447.78
726.965	18582.77
727.296	18585.52
727.628	18349.9
727.959	18313.87
728.29	18378.01
728.621	18317.06
728.952	18480.42
729.284	18453.1
729.615	18502.83
729.945	18261.19
730.276	18102.51
730.607	18073.62
730.938	18069.3
731.269	18047.03
731.599	17946.71
731.93	17967.21
732.261	17917.42
732.591	17859.02
732.922	17848.43
733.252	17614.75
733.582	17510.39
733.912	17576.81
734.243	17585.8
734.573	17725.46
734.903	17861.68
735.233	17746.52
735.563	17674.27
735.893	17596.17
736.223	17597.16
736.552	17494.1
736.882	17361.6
737.212	17318.89
737.541	17314.57
737.871	17333.59
738.2	17350.93
738.53	17311.53
738.859	17198.37
739.188	17043.64
739.518	16976
739.847	17066.61
740.176	17047.34
740.505	17109.8
740.834	17069.23
741.163	16995.61
741.492	16891.94
741.821	16824.68
742.15	16680.86
742.478	16746.04
742.807	16642.55
743.136	16667.68
743.464	16654.98
743.793	16600.16
744.121	16556.87
744.449	16510.73
744.778	16471.3
745.106	16492.64
745.434	16430.87
745.762	16345.08
746.09	16298.77
746.418	16218.54
746.746	16089.09
747.074	15961.33
747.402	16100.15
747.73	16085.36
748.057	16088.57
748.385	15978.74
748.712	15889.75
749.04	15946.27
749.367	15915.05
749.695	15734.11
750.022	15859.55
750.349	15723.41
750.677	15702.73
751.004	15658.2
751.331	15620.8
751.658	15644.46
751.985	15620.48
752.312	15522.88
752.639	15419.62
752.966	15351.09
753.292	15188.16
753.619	15333.05
753.946	15325.55
754.272	15264.87
754.599	15310.56
754.925	15300.71
755.251	15280.3
755.578	15230.29
755.904	15133.96
756.23	14995.91
756.556	15077.87
756.882	15154.34
757.208	15013.25
757.534	15069.2
757.86	15154.57
758.186	15218.74
758.512	15069.93
758.838	15009.04
759.163	14941.95
759.489	14792.96
759.814	14558.22
760.14	14710.6
760.465	14723.58
760.791	14597.14
761.116	14592.02
761.441	14544.34
761.766	14539.72
762.092	14463.01
762.417	14254.8
762.742	14137.82
763.066	14126.73
763.391	14135.41
763.716	14172.81
764.041	14243.01
764.366	14205.7
764.69	14104.06
765.015	14170.32
765.339	14157.5
765.664	14143.92
765.988	14031.64
766.312	13881.34
766.637	13699.94
766.961	13652.72
767.285	13718.56
767.609	13612.05
767.933	13431.68
768.257	13546.49
768.581	13432.61
768.905	13543.04
769.229	13526.13
769.552	13496.46
769.876	13582.24
770.2	13445.79
770.523	13434.71
770.847	13335.41
771.17	13300.64
771.493	13321.72
771.817	13257.06
772.14	13167.29
772.463	13065.94
772.786	12995.59
773.109	12862.53
773.432	12840.84
773.755	12772.08
774.078	12756.29
774.401	12742.56
774.724	12668.83
775.046	12714.56
775.369	12618.89
775.692	12549.14
776.014	12495.96
776.336	12382.54
776.659	12387.79
776.981	12371.64
777.303	12406.26
777.626	12394.61
777.948	12404.99
778.27	12438.54
778.592	12405.83
778.914	12339.04
779.236	12220.4
779.557	12228.8
779.879	12326.28
780.201	12244.35
780.523	12248.4
780.844	12201.82
781.166	12082.65
781.487	12013.32
781.809	12032.18
782.13	12154.13
782.451	12113.87
782.772	12210.64
783.094	12195.46
783.415	12207.88
783.736	12156.62
784.057	12299.98
784.378	12305.13
784.698	12172.39
785.019	12222.66
785.34	12069.47
785.661	12195.17
785.981	12231.06
786.302	12247.45
786.622	12316.12
786.943	12389.66
787.263	12307.71
787.583	12296.33
787.903	12345.33
788.224	12371.96
788.544	12377.92
788.864	12213.68
789.184	12294.07
789.504	12363.82
789.824	12304.6
790.143	12304.9
790.463	12326.72
790.783	12310.77
791.102	12243.64
791.422	12233.8
791.741	12210.49
792.061	12244.23
792.38	12341.04
792.699	12219
793.019	12130.78
793.338	12087.65
793.657	12061.2
793.976	12155.05
794.295	12174.23
794.614	12350.21
794.933	12319.25
795.252	12218.12
795.57	12198.96
795.889	12280.06
796.208	12332.38
796.526	12125.96
796.845	12140.79
797.163	12080.96
797.482	12018.95
797.8	11991.94
798.118	12071.79
798.436	12101.82
798.754	12065
799.073	11972.72
799.391	11837.21
799.708	11729.3
800.026	11878.79
800.344	11953.66
800.662	11880.07
800.98	11791.91
801.297	11714.18
801.615	11652.97
801.932	11724.89
802.25	11700.27
802.567	11655.79
802.884	11534.02
803.202	11461.37
803.519	11468.18
803.836	11555.92
804.153	11456.1
804.47	11416.53
804.787	11313.07
805.104	11223.42
805.421	11324.38
805.737	11337.97
806.054	11255.1
806.371	11332.59
806.687	11454.69
807.004	11346.66
807.32	11226.94
807.637	11114.35
807.953	11070.86
808.269	11057.49
808.585	11004.98
808.902	10859
809.218	10775.37
809.534	10802.65
809.85	10724.72
810.165	10666.04
810.481	10720.18
810.797	10694.06
811.113	10685
811.428	10624.01
811.744	10594.51
812.059	10562.93
812.375	10534.01
812.69	10493.05
813.006	10402.31
813.321	10309.38
813.636	10249.79
813.951	10260.58
814.266	10298.95
814.581	10280.74
814.896	10258.34
815.211	10229.29
815.526	10125.02
815.841	10068.77
816.155	10164.04
816.47	10164.22
816.784	10066.53
817.099	9964.63
817.413	9889.42
817.728	9895.08
818.042	9908.9
818.356	9887.37
818.67	9837.58
818.985	9827.45
819.299	9668.17
819.613	9658.42
819.926	9593.35
820.24	9641.06
820.554	9695.25
820.868	9752.18
821.182	9599.18
821.495	9619.44
821.809	9481.42
822.122	9522.06
822.436	9530.62
822.749	9586.2
823.062	9473.62
823.376	9369.38
823.689	9256.57
824.002	9251.61
824.315	9267.64
824.628	9344.82
824.941	9357.94
825.254	9285.7
825.566	9138.63
825.879	9045.49
826.192	9037.31
826.504	9030.76
826.817	9085.81
827.129	9077.65
827.442	9016
827.754	9009.79
828.066	8986.22
828.379	8861.2
828.691	8879.27
829.003	8796.11
829.315	8798.63
829.627	8744.46
829.939	8641.73
830.251	8653.13
830.562	8575.63
830.874	8585.49
831.186	8491.65
831.497	8584.3
831.809	8570.58
832.12	8504.7
832.432	8394.33
832.743	8341.03
833.054	8282.37
833.365	8336.56
833.676	8357.91
833.988	8362.92
834.299	8318.27
834.61	8241.77
834.92	8234.48
835.231	8266.88
835.542	8263.85
835.853	8210.57
836.163	8235.35
836.474	8161.41
836.784	8058.93
837.095	7990.05
837.405	7909.9
837.715	7902.92
838.026	7932.97
838.336	7918.51
838.646	7858.72
838.956	7729.72
839.266	7697.51
839.576	7701.02
839.886	7657.56
840.195	7751.57
840.505	7783.16
840.815	7749.55
841.124	7691.06
841.434	7627.06
841.743	7525.12
842.053	7476.57
842.362	7429.7
842.671	7437.69
842.981	7426.11
843.29	7302.96
843.599	7296.18
843.908	7294.03
844.217	7216.72
844.526	7250.29
844.835	7237.31
845.143	7223.24
845.452	7159.24
845.761	7149
846.069	7061.57
846.378	7055.23
846.686	7039.73
846.995	7083.84
847.303	7068.24
847.611	7083.48
847.919	7003.33
848.227	6967.3
848.535	6890.05
848.843	6820.73
849.151	6757.46
849.459	6829.72
849.767	6771.19
850.075	6757.41
850.382	6662.59
850.69	6601.75
850.998	6593.76
851.305	6546.7
851.612	6580.38
851.92	6589.46
852.227	6589.78
852.534	6562.21
852.841	6525.37
853.148	6491.1
853.455	6564.85
853.762	6531.13
854.069	6471.72
854.376	6451.81
854.683	6425.1
854.99	6382.9
855.296	6308.83
855.603	6220.39
855.909	6143.2
856.216	6129.17
856.522	6169.91
856.828	6148.57
857.135	6085.74
857.441	5990.78
857.747	5949.35
858.053	5919.27
858.359	5889.08
858.665	5914.97
858.971	5884.25
859.276	5866.38
859.582	5834.57
859.888	5814.97
860.193	5771
860.499	5774.22
860.804	5770.97
861.11	5725.29
861.415	5699.43
861.72	5693.32
862.026	5663.96
862.331	5647.7
862.636	5578.07
862.941	5584.05
863.246	5540.01
863.551	5566
863.855	5528.45
864.16	5480.54
864.465	5443.1
864.769	5435.48
865.074	5376.2
865.378	5322.01
865.683	5322.37
865.987	5387.95
866.291	5311.03
866.596	5291.42
866.9	5247.74
867.204	5191.56
867.508	5133.49
867.812	5141.83
868.116	5178.33
868.42	5199.16
868.723	5174.53
869.027	5136.08
869.331	5071.47
869.634	5022.65
869.938	4930.2
870.241	4934.44
870.544	4939.98
870.848	4959.63
871.151	4931.51
871.454	4890.8
871.757	4864.72
872.06	4808.36
872.363	4731.87
872.666	4744.87
872.969	4746.21
873.272	4745.8
873.574	4773.26
873.877	4748.73
874.18	4715.46
874.482	4674.91
874.785	4607.09
875.087	4510.58
875.389	4520.94
875.692	4528.41
875.994	4517.83
876.296	4474.56
876.598	4438.92
876.9	4387.32
877.202	4339.39
877.504	4337.19
877.805	4348.45
878.107	4344.4
878.409	4298.48
878.71	4343.87
879.012	4362.44
879.313	4322.11
879.615	4295.36
879.916	4221.22
880.217	4182.39
880.518	4186.05
880.82	4192.16
881.121	4158.35
881.422	4149.35
881.723	4100.53
882.023	4032.97
882.324	3997.69
882.625	3958.46
882.926	3924.74
883.226	3946.26
883.527	3936.64
883.827	3942.2
884.128	3928.06
884.428	3908.32
884.728	3841.1
885.028	3828.41
885.328	3835.03
885.629	3805.6
885.929	3819.82
886.228	3809.65
886.528	3766.23
886.828	3727.65
887.128	3694.1
887.427	3652.79
887.727	3641.34
888.027	3612.39
888.326	3618.11
888.625	3589.82
888.925	3528.16
889.224	3532.96
889.523	3509.35
889.822	3478.67
890.121	3471.91
890.42	3468.84
890.719	3463.16
891.018	3434.11
891.317	3459.89
891.616	3460.07
891.914	3409.57
892.213	3375.86
892.512	3348.09
892.81	3323.94
893.108	3325.37
893.407	3334.94
893.705	3319.72
894.003	3287.3
894.301	3282.46
894.599	3283.55
894.897	3295.78
895.195	3282.71
895.493	3252.87
895.791	3253.39
896.089	3247.45
896.386	3260.96
896.684	3292.01
896.981	3296.03
897.279	3284.45
897.576	3295.81
897.874	3246.67
898.171	3261.89
898.468	3279.78
898.765	3274.97
899.062	3300.84
899.359	3302
899.656	3296.63
899.953	3274.75
900.25	3262.04
900.547	3240.43
900.843	3231.16
901.14	3251.23
901.436	3269.26
901.733	3281.95
902.029	3279.18
902.325	3281.04
902.622	3236.39
902.918	3228.56
903.214	3210.06
903.51	3156.74
903.806	3150.76
904.102	3171.53
904.398	3187.6
904.694	3194.7
904.989	3228.56
905.285	3203.39
905.581	3168.15
905.876	3152.02
906.171	3130.8
906.467	3123.43
906.762	3137.99
907.057	3144.71
907.353	3159.67
907.648	3137.01
907.943	3103.68
908.238	3060.69
908.533	3034.56
908.827	3039.27
909.122	3033.15
909.417	3038.97
909.711	3048.04
910.006	3026.74
910.301	2989.83
910.595	2994.44
910.889	2991.48
911.184	2949.24
911.478	2949.33
911.772	2962.56
912.066	2939.52
912.36	2933
912.654	2928.75
912.948	2937.37
913.242	2945.13
913.536	2896.63
913.829	2863.33
914.123	2836.37
914.416	2790.93
914.71	2788.35
915.003	2807.54
915.297	2808.25
915.59	2802.37
915.883	2812.66
916.176	2827.93
916.469	2819.46
916.762	2814.44
917.055	2777.98
917.348	2738.4
917.641	2722.12
917.934	2706.91
918.226	2706.37
918.519	2698.01
918.811	2692.22
919.104	2670.52
919.396	2646
919.689	2619.4
919.981	2593.38
920.273	2578.28
920.565	2576.44
920.857	2572.4
921.149	2572.87
921.441	2553.69
921.733	2539.63
922.025	2505.13
922.316	2473.13
922.608	2464.9
922.9	2450.11
923.191	2450.31
923.483	2464.74
923.774	2436.67
924.065	2426.13
924.357	2411.49
924.648	2380.47
924.939	2358.16
925.23	2332.47
925.521	2312.22
925.812	2297.91
926.102	2291.73
926.393	2293.5
926.684	2296.21
926.975	2283.17
927.265	2269.61
927.556	2258.99
927.846	2230.33
928.136	2212.97
928.427	2186.91
928.717	2170.87
929.007	2168.1
929.297	2155.08
929.587	2160.73
929.877	2156.51
930.167	2148.88
930.457	2125.13
930.746	2085.43
931.036	2061.15
931.325	2036.93
931.615	2032.88
931.904	2040.41
932.194	2024.27
932.483	2020.36
932.772	2023.01
933.062	2015.69
933.351	1997.37
933.64	1956.72
933.929	1944.12
934.218	1924.28
934.506	1910.19
934.795	1909.03
935.084	1902.48
935.372	1888.96
935.661	1875.46
935.949	1859.78
936.238	1852
936.526	1820.27
936.815	1802.23
937.103	1781.79
937.391	1766.92
937.679	1763.8
937.967	1754.91
938.255	1746.45
938.543	1742.99
938.831	1724.87
939.118	1718.26
939.406	1699.61
939.693	1678.21
939.981	1658.38
940.268	1652.06
940.556	1637.92
940.843	1638.44
941.13	1641.16
941.418	1636.57
941.705	1620.9
941.992	1607.09
942.279	1590.33
942.566	1570.53
942.852	1559.63
943.139	1552.16
943.426	1544.15
943.712	1538.44
943.999	1522.06
944.285	1512.27
944.572	1497.52
944.858	1504.29
945.144	1502.21
945.431	1479.9
945.717	1459.66
946.003	1443.17
946.289	1423.44
946.575	1409.28
946.861	1405.07
947.146	1406.43
947.432	1413.6
947.718	1406.17
948.003	1397.81
948.289	1388.11
948.574	1367.61
948.86	1347.46
949.145	1333.93
949.43	1322.34
949.715	1325.51
950	1322.89
950.285	1324.81
950.57	1321.64
950.855	1315.89
951.14	1307.36
951.425	1299.68
951.709	1279.49
951.994	1256.6
952.278	1244.21
952.563	1233.6
952.847	1224.28
953.132	1223.52
953.416	1230.52
953.7	1223.04
953.984	1220.89
954.268	1208.26
954.552	1196.93
954.836	1181.74
955.12	1165.2
955.404	1151.97
955.687	1138.35
955.971	1131.25
956.254	1127.74
956.538	1123.41
956.821	1119.32
957.105	1113.79
957.388	1110.95
957.671	1099.1
957.954	1095.69
958.237	1084.44
958.52	1072.96
958.803	1064.35
959.086	1056.23
959.369	1048.91
959.652	1041.85
959.934	1035.7
960.217	1032.27
960.499	1030.01
960.782	1020.22
961.064	1015.4
961.346	1007.55
961.629	993.17
961.911	984.79
962.193	979.01
962.475	973.04
962.757	963.14
963.039	957.82
963.32	956.27
963.602	947.76
963.884	942.84
964.165	934.62
964.447	926.23
964.728	911.84
965.01	904.02
965.291	892.35
965.572	885.57
965.853	885.58
966.134	883.75
966.415	885.03
966.696	881.6
966.977	873.6
967.258	868.95
967.539	855.69
967.819	851.85
968.1	846.18
968.38	839.52
968.661	834.84
968.941	828.11
969.222	826.43
969.502	821.69
969.782	818.86
970.062	816.73
970.342	812.16
970.622	805.05
970.902	793.78
971.182	781.09
971.462	771.24
971.741	764.22
972.021	757.6
972.3	753.64
972.58	751.43
972.859	749.45
973.138	752.05
973.418	749.25
973.697	740.54
973.976	731.96
974.255	721.77
974.534	713.14
974.813	705.74
975.092	701.5
975.37	700.13
975.649	702.06
975.928	698.91
976.206	698.66
976.485	695.59
976.763	689.65
977.041	684.59
977.32	678.02
977.598	668.42
977.876	662
978.154	657.23
978.432	655.86
978.71	652.23
978.988	650.57
979.265	646.31
979.543	647.04
979.821	642.28
980.098	641.19
980.376	636.2
980.653	628.7
980.93	624.14
981.208	621.06
981.485	610.79
981.762	608.71
982.039	606.98
982.316	602.63
982.593	599.98
982.87	599.17
983.146	598.16
983.423	593.78
983.7	593.25
983.976	584.3
984.253	580.45
984.529	575.09
984.805	570.96
985.082	571.41
985.358	567.63
985.634	563.59
985.91	560.93
986.186	559.23
986.462	557.27
986.738	556.54
987.013	552.52
987.289	551.15
987.565	548.04
987.84	542.35
988.116	535.92
988.391	530.23
988.666	529.57
988.942	526.66
989.217	525.14
989.492	522.99
989.767	520.4
990.042	518.25
990.317	512.9
990.592	511.65
990.866	508.99
991.141	503.96
991.416	501.99
991.69	497.01
991.964	495.07
992.239	494.51
992.513	491.4
992.787	488.66
993.062	484.96
993.336	484.08
993.61	482.98
993.884	479.83
994.158	480.35
994.431	478.05
994.705	473.37
994.979	471.97
995.252	469.78
995.526	466.96
995.799	465.3
996.073	463.09
996.346	463.43
996.619	460.51
996.892	458.63
997.165	457.23
997.438	455.49
997.711	453.4
997.984	449.13
998.257	449.47
998.53	447.7
998.802	444.54
999.075	445.28
999.347	442.15
999.62	441.74
999.892	439.16
1000.165	435.95
1000.437	435
1000.709	434.4
1000.981	432.58
1001.253	429.69
1001.525	426.16
1001.797	427.2
1002.068	424.11
1002.34	423.06
1002.612	423.76
1002.883	418.84
1003.155	417.48
1003.426	417.92
1003.698	417.52
1003.969	416.62
1004.24	413.57
1004.511	414.69
1004.782	412.27
1005.053	410.91
1005.324	408.49
1005.595	407.54
1005.866	406.5
1006.136	405.3
1006.407	405.98
1006.678	402.3
1006.948	402.25
1007.218	402.11
1007.489	399.42
1007.759	396.85
1008.029	398.41
1008.299	395.55
1008.569	395.77
1008.839	395.19
1009.109	391.98
1009.379	393.66
1009.649	390.67
1009.918	390.37
1010.188	388.73
1010.458	388.56
1010.727	388.59
1010.996	388.49
1011.266	385.95
1011.535	387.09
1011.804	385.61
1012.073	384.07
1012.342	383.18
1012.611	382.76
1012.88	381.9
1013.149	381.14
1013.417	379.05
1013.686	379.6
1013.955	379.43
1014.223	377.89
1014.492	376.92
1014.76	377.43
1015.028	376.88
1015.296	375.24
1015.565	375.56
1015.833	375.71
1016.101	373.39
1016.368	373.11
1016.636	372.2
1016.904	371.46
1017.172	372.52
1017.439	370.56
1017.707	372.21
1017.974	369.9
1018.242	373.17
1018.509	370.94
1018.776	370.28
1019.044	369.51
1019.311	367.56
1019.578	368.55
1019.845	368.54
1020.112	367.78
1020.378	367.78
1020.645	367.78
