Data from 190626_Kr_41K_dark_FLMS138901_13-59-47-628.txt Node
Date: Wed Jun 26 13:59:47 EDT 2019
User: pSAM
Spectrometer: FLMS13890
Trigger mode: 0
Integration Time (sec): 5.000000E-3
Scans to average: 1000
Electric dark correction enabled: true
Nonlinearity correction enabled: false
Boxcar width: 0
XAxis mode: Wavelengths
Number of Pixels in Spectrum: 2048
>>>>>Begin Spectral Data<<<<<
342.097	-62.02
342.483	-62.02
342.868	-62.02
343.254	-100.28
343.639	-101.25
344.025	-101.97
344.41	-100.7
344.796	-92.53
345.181	-79.44
345.567	-66.36
345.952	-55
346.337	-35.38
346.722	-18.63
347.107	0.1
347.493	18.14
347.878	38.19
348.263	60.27
348.648	78.71
349.033	98.88
349.418	118.61
349.802	137.11
350.187	154.22
350.572	172.4
350.957	192.48
351.342	207.84
351.726	219.41
352.111	237.93
352.495	249.97
352.88	261.22
353.264	274.52
353.649	283.53
354.033	292.64
354.418	302.57
354.802	309.35
355.186	315.28
355.57	321.38
355.955	326.79
356.339	331.22
356.723	334.77
357.107	337.97
357.491	354.16
357.875	343.55
358.259	343.33
358.643	344.51
359.026	344.94
359.41	345.02
359.794	342.23
360.178	344.5
360.561	342.82
360.945	340.63
361.329	338.68
361.712	338.24
362.096	335.46
362.479	334.87
362.862	333.98
363.246	331.52
363.629	330.2
364.012	328.02
364.396	325.46
364.779	324.18
365.162	325.04
365.545	323.39
365.928	321.08
366.311	322.27
366.694	319.08
367.077	318.09
367.46	318.22
367.843	316.57
368.226	316.59
368.608	315.41
368.991	314.6
369.374	315.53
369.756	314.82
370.139	312.93
370.521	313.51
370.904	313.99
371.286	315.46
371.669	312.66
372.051	315.82
372.433	315.51
372.816	315.62
373.198	315.47
373.58	316.12
373.962	315.6
374.344	315.42
374.726	316.62
375.108	315.19
375.49	317.94
375.872	317.88
376.254	319.81
376.636	321.07
377.018	321.07
377.399	321.3
377.781	318.86
378.163	320.06
378.544	321.6
378.926	320.8
379.307	323.07
379.689	324.72
380.07	323.44
380.452	324.75
380.833	327.29
381.214	324.46
381.596	326.48
381.977	325.14
382.358	326.62
382.739	326.48
383.12	327.9
383.501	325.89
383.882	329.14
384.263	327.32
384.644	327.95
385.025	329.48
385.406	330.56
385.787	328.76
386.167	328.71
386.548	328.55
386.929	332.01
387.309	330.99
387.69	332.43
388.07	333.66
388.451	333.52
388.831	330.84
389.211	333.94
389.592	333.05
389.972	334.48
390.352	333.09
390.733	333.07
391.113	334.47
391.493	334.55
391.873	335.31
392.253	334.43
392.633	335.52
393.013	336.39
393.393	337.11
393.772	334.09
394.152	336.46
394.532	336.56
394.912	336.7
395.291	338.58
395.671	336.99
396.05	339.69
396.43	339.15
396.809	337.95
397.189	338.77
397.568	338.79
397.948	341.62
398.327	340.08
398.706	339.49
399.085	341.89
399.465	341.02
399.844	341.04
400.223	341.97
400.602	340.42
400.981	341.81
401.36	343.66
401.739	341.63
402.117	341.5
402.496	343.34
402.875	345.07
403.254	344.42
403.632	343.1
404.011	344.96
404.39	343.69
404.768	345.71
405.147	345.44
405.525	348.24
405.903	345.54
406.282	345.75
406.66	345.81
407.038	347.6
407.417	348.15
407.795	346.57
408.173	348.26
408.551	348.77
408.929	348.33
409.307	348.05
409.685	347.32
410.063	347.25
410.441	347.67
410.818	348.79
411.196	349.12
411.574	348.21
411.952	349.03
412.329	349.03
412.707	350.01
413.084	350.65
413.462	350.15
413.839	350.08
414.217	350.49
414.594	351.87
414.971	353.32
415.349	352.89
415.726	354.15
416.103	350.89
416.48	352.61
416.857	352.7
417.234	353.33
417.611	353.03
417.988	353.94
418.365	353.02
418.742	350.74
419.119	353.51
419.495	355.26
419.872	354.01
420.249	361.22
420.625	355.19
421.002	354.86
421.379	355.99
421.755	355.05
422.131	356.36
422.508	356.45
422.884	355.01
423.26	357.58
423.637	356.46
424.013	356.89
424.389	358.78
424.765	357.63
425.141	358.55
425.517	357.47
425.893	358.17
426.269	358.09
426.645	358.3
427.021	359.77
427.397	358.34
427.772	358.38
428.148	360.08
428.524	358.44
428.899	358.43
429.275	359.26
429.651	358.66
430.026	360.81
430.401	358.08
430.777	358.64
431.152	360.71
431.527	361.67
431.903	361.3
432.278	363.53
432.653	362.41
433.028	363.24
433.403	362.78
433.778	360.49
434.153	362.91
434.528	361.83
434.903	365.13
435.278	364.82
435.653	369.93
436.027	370.03
436.402	368.45
436.777	367.32
437.151	362.71
437.526	364.03
437.9	364.73
438.275	364.65
438.649	364.65
439.023	363.41
439.398	362.82
439.772	362.64
440.146	363.92
440.52	364.16
440.895	363.87
441.269	362.65
441.643	363.02
442.017	364.47
442.391	364.11
442.765	365.96
443.138	365.83
443.512	366.7
443.886	364.3
444.26	364.11
444.633	365.9
445.007	367.14
445.38	365.25
445.754	364.95
446.127	364.67
446.501	366.59
446.874	365.88
447.248	366.04
447.621	368.14
447.994	367.14
448.367	365.4
448.741	366.02
449.114	366.9
449.487	367.99
449.86	366.7
450.233	368.37
450.606	367.05
450.978	366.88
451.351	385.59
451.724	367.82
452.097	367.64
452.469	369.85
452.842	367.51
453.215	368.03
453.587	368.32
453.96	369.01
454.332	368.57
454.704	369.11
455.077	367.14
455.449	366.23
455.821	369.42
456.194	368.09
456.566	369.09
456.938	369.81
457.31	372
457.682	368.5
458.054	370.14
458.426	368.71
458.798	368.82
459.17	369.67
459.541	370.25
459.913	371.06
460.285	371.36
460.656	370.47
461.028	368.19
461.399	369.55
461.771	368.97
462.142	370.82
462.514	370.85
462.885	369.37
463.256	371.37
463.628	370.29
463.999	369
464.37	371
464.741	369.63
465.112	371.05
465.483	369.45
465.854	371.6
466.225	370.33
466.596	370.31
466.967	370.54
467.338	371.66
467.708	370.82
468.079	370.05
468.45	371.46
468.82	370.75
469.191	372.17
469.561	372.44
469.932	370.85
470.302	371.08
470.673	374
471.043	370.51
471.413	372.51
471.783	371.91
472.154	371.93
472.524	370.86
472.894	370.1
473.264	374.12
473.634	373.22
474.004	369.54
474.374	372.76
474.743	372.94
475.113	372.61
475.483	371.28
475.853	373.02
476.222	371.36
476.592	372.57
476.961	371.55
477.331	372.9
477.7	373.67
478.07	370.23
478.439	371.59
478.808	373.04
479.178	372.34
479.547	372.45
479.916	371.15
480.285	372.37
480.654	372.18
481.023	371.65
481.392	371.53
481.761	372.24
482.13	371.88
482.499	375.1
482.867	372.35
483.236	371.94
483.605	373.19
483.973	374.47
484.342	372.31
484.71	373.39
485.079	375.8
485.447	374.35
485.816	375.31
486.184	375.04
486.552	374.93
486.921	375.33
487.289	374.97
487.657	374.27
488.025	376.49
488.393	375.78
488.761	376.92
489.129	376.56
489.497	374.41
489.865	377.29
490.233	375.51
490.6	377.99
490.968	376.19
491.336	375.18
491.703	376.65
492.071	374.96
492.438	374.27
492.806	376.49
493.173	375.26
493.541	376.8
493.908	375.3
494.275	376.58
494.642	376.12
495.01	374.21
495.377	376.01
495.744	375.72
496.111	375.47
496.478	374.13
496.845	373.34
497.211	374.54
497.578	375.86
497.945	375.23
498.312	376.35
498.678	373.83
499.045	374.18
499.412	374.73
499.778	374.18
500.145	372.46
500.511	371.14
500.878	371.75
501.244	373.11
501.61	372.85
501.976	374.01
502.343	373.24
502.709	373.94
503.075	373.65
503.441	372.73
503.807	372.23
504.173	373.89
504.539	372.34
504.905	374.42
505.27	370.96
505.636	373.78
506.002	373.68
506.367	370.9
506.733	372.2
507.099	372.15
507.464	371.72
507.829	372.59
508.195	373.07
508.56	375.36
508.926	372.91
509.291	373.55
509.656	372.52
510.021	371.44
510.386	372.65
510.751	373.8
511.116	373.33
511.481	371.14
511.846	372.29
512.211	372.73
512.576	370.66
512.941	373.54
513.305	372.81
513.67	371.05
514.035	372.62
514.399	374.17
514.764	373.6
515.128	373.19
515.493	372.64
515.857	371.81
516.221	370.93
516.585	372.93
516.95	370.86
517.314	372.74
517.678	371.98
518.042	371.8
518.406	371.43
518.77	371.31
519.134	372.27
519.498	371.1
519.862	373.19
520.225	370.44
520.589	372.03
520.953	372.3
521.316	372.31
521.68	373.27
522.043	369.7
522.407	371.37
522.77	370.68
523.134	372.56
523.497	371.6
523.86	371.22
524.223	370.36
524.587	370.54
524.95	370.2
525.313	371.18
525.676	371.13
526.039	372.98
526.402	372.2
526.765	371.16
527.127	370.9
527.49	371.81
527.853	371.85
528.215	370.73
528.578	369.81
528.941	369.94
529.303	370.74
529.666	369.97
530.028	371.19
530.39	371.92
530.753	368.12
531.115	372.91
531.477	370.2
531.839	370.53
532.201	371.7
532.564	371.21
532.926	369.25
533.287	371.24
533.649	371.5
534.011	370.13
534.373	371.29
534.735	372.68
535.097	370.14
535.458	371.52
535.82	370.49
536.181	372.62
536.543	372.76
536.904	370.97
537.266	371.97
537.627	370.83
537.988	371.3
538.35	371.28
538.711	372.19
539.072	374.46
539.433	374.34
539.794	375.37
540.155	375.92
540.516	375.23
540.877	379.12
541.238	381.67
541.599	386.78
541.959	391
542.32	395.22
542.681	398.73
543.041	400.93
543.402	401.21
543.762	402.86
544.123	399.98
544.483	400.39
544.844	398.41
545.204	395.99
545.564	400.89
545.924	406.12
546.284	405.12
546.644	400.91
547.004	392.31
547.364	386.63
547.724	381.4
548.084	378.88
548.444	380.08
548.804	379.94
549.164	377.06
549.523	377.71
549.883	377.24
550.242	376.85
550.602	377.96
550.961	375.84
551.321	374.29
551.68	377.39
552.04	375.33
552.399	375.51
552.758	375.94
553.117	375.39
553.476	374.61
553.835	372.5
554.194	371.84
554.553	372.1
554.912	371.65
555.271	371.27
555.63	369.64
555.989	369.28
556.347	370.12
556.706	369.6
557.065	368.68
557.423	369.36
557.782	369.79
558.14	369.73
558.499	370.22
558.857	369.87
559.215	369.89
559.573	369.8
559.932	369.31
560.29	368.56
560.648	368.99
561.006	368.79
561.364	371.56
561.722	369.82
562.08	368.81
562.438	370.87
562.795	367.39
563.153	368.31
563.511	369.71
563.868	369.89
564.226	369.27
564.583	368.16
564.941	367.1
565.298	367.33
565.656	367.75
566.013	370.09
566.37	368.03
566.727	368.94
567.085	370.23
567.442	370.3
567.799	367.45
568.156	368.61
568.513	370.16
568.87	368.77
569.226	367.7
569.583	367.64
569.94	369.78
570.297	367.27
570.653	367.93
571.01	367.32
571.366	367.83
571.723	367.91
572.079	368.91
572.436	367.78
572.792	367.96
573.148	367.23
573.505	368.8
573.861	368.16
574.217	369.12
574.573	367.54
574.929	367.23
575.285	369.1
575.641	369.46
575.997	368.54
576.352	369.42
576.708	370.96
577.064	371.79
577.42	368.34
577.775	369.52
578.131	368.86
578.486	371.08
578.842	371.67
579.197	371.93
579.552	370.94
579.908	373.05
580.263	372.52
580.618	370.66
580.973	372.8
581.328	372.22
581.683	370.58
582.038	371.31
582.393	372.31
582.748	373.41
583.103	372.97
583.458	374.81
583.812	374.94
584.167	374.1
584.522	374.04
584.876	375.7
585.231	372.2
585.585	371.68
585.939	371.54
586.294	370.73
586.648	371.26
587.002	373.21
587.356	377.89
587.711	375.7
588.065	374.55
588.419	374.76
588.773	374.61
589.127	372.02
589.48	372.26
589.834	372.98
590.188	370.27
590.542	370.08
590.895	369.4
591.249	370.54
591.603	369.23
591.956	370.75
592.309	369.79
592.663	372.26
593.016	369.49
593.369	372.03
593.723	371.92
594.076	369.9
594.429	368.21
594.782	368.84
595.135	368.46
595.488	368.17
595.841	368.8
596.194	369.41
596.547	367.18
596.899	368.44
597.252	368.23
597.605	366.97
597.957	366.64
598.31	368.22
598.662	369.09
599.015	370.4
599.367	368.33
599.719	368.74
600.072	370.84
600.424	371.7
600.776	369.43
601.128	366.6
601.48	365.82
601.832	368.51
602.184	366.55
602.536	364.73
602.888	365.69
603.24	366.18
603.592	366.32
603.943	364.86
604.295	365.13
604.646	364.42
604.998	365.25
605.349	365.45
605.701	366.6
606.052	367.53
606.404	366.64
606.755	366.85
607.106	365.99
607.457	366.69
607.808	369.19
608.159	367.57
608.51	367.78
608.861	369.26
609.212	369.26
609.563	369.26
609.914	370.34
610.265	374.27
610.615	380.76
610.966	390.41
611.316	399.14
611.667	404.18
612.017	403.67
612.368	398.61
612.718	393.38
613.068	386.44
613.419	382.23
613.769	380.3
614.119	375.81
614.469	375.42
614.819	375.76
615.169	374.22
615.519	374.64
615.869	372.96
616.219	371.17
616.568	369.36
616.918	371.11
617.268	369.22
617.617	370.69
617.967	369.15
618.316	367.03
618.666	368.16
619.015	367.14
619.364	368.75
619.714	371.56
620.063	367.49
620.412	372.88
620.761	368.72
621.11	369.46
621.459	368.35
621.808	369.99
622.157	368.71
622.506	367.72
622.855	369.09
623.203	367.46
623.552	366.8
623.901	367.25
624.249	367.54
624.598	367.75
624.946	366.84
625.295	367.59
625.643	367.47
625.991	366.3
626.34	367.8
626.688	365.87
627.036	365.7
627.384	365.84
627.732	367.4
628.08	368.39
628.428	366.16
628.776	366.41
629.124	368.59
629.471	368.48
629.819	365.25
630.167	367.51
630.514	368.26
630.862	369.17
631.209	367.52
631.557	367.31
631.904	368.7
632.251	368.83
632.599	366.33
632.946	365.74
633.293	365.02
633.64	365.3
633.987	366.17
634.334	363.59
634.681	364.42
635.028	363.11
635.375	363.63
635.722	365.78
636.068	363.46
636.415	362.97
636.762	362.37
637.108	363.72
637.455	364.27
637.801	361.29
638.147	362.96
638.494	364.66
638.84	364.35
639.186	363.27
639.532	364.43
639.878	363.51
640.225	364.26
640.571	363.9
640.916	363.73
641.262	362.98
641.608	362.74
641.954	362.53
642.3	363.24
642.645	363.13
642.991	362.7
643.337	363.19
643.682	363.48
644.028	364.29
644.373	363.54
644.718	363.82
645.064	364.07
645.409	363.61
645.754	362.71
646.099	362.41
646.444	363.58
646.789	364.16
647.134	365.52
647.479	362.9
647.824	364.48
648.169	364.44
648.513	362.96
648.858	363.35
649.203	364.55
649.547	363.2
649.892	361.29
650.236	365.65
650.581	362.46
650.925	364.97
651.269	363.58
651.613	364.51
651.958	363.33
652.302	362.15
652.646	364.98
652.99	363.97
653.334	364.95
653.678	363.53
654.022	364.55
654.365	363.75
654.709	363.3
655.053	362.49
655.396	362.16
655.74	363.98
656.083	362.02
656.427	361.8
656.77	363.58
657.114	364.6
657.457	361.29
657.8	363.35
658.143	363.38
658.486	361.98
658.83	364.27
659.173	362.74
659.516	363.48
659.858	360.84
660.201	361.27
660.544	363.12
660.887	362.78
661.229	362.19
661.572	362.59
661.915	362.09
662.257	363.43
662.6	362.72
662.942	362.2
663.284	363.87
663.627	363.8
663.969	361.07
664.311	362.62
664.653	362.24
664.995	363.18
665.337	361.44
665.679	361.33
666.021	362.3
666.363	362.49
666.705	363.66
667.046	362.53
667.388	362.3
667.73	361.16
668.071	361.47
668.413	361.69
668.754	363.5
669.096	361.07
669.437	362.07
669.778	360.41
670.119	362.23
670.461	361.21
670.802	361.14
671.143	362.24
671.484	361.91
671.825	362.64
672.165	361.3
672.506	361.02
672.847	363.36
673.188	363.64
673.528	362.91
673.869	362.43
674.21	361.51
674.55	362.11
674.89	362
675.231	361.95
675.571	361.51
675.911	361.66
676.252	361.43
676.592	360.98
676.932	360.81
677.272	361.2
677.612	361.5
677.952	360.88
678.292	362.88
678.631	362.95
678.971	361.87
679.311	361.15
679.651	361.2
679.99	361.4
680.33	361.59
680.669	361.46
681.009	362.23
681.348	363.2
681.687	361.87
682.026	361.14
682.366	362.91
682.705	361.49
683.044	363.58
683.383	359.62
683.722	360.32
684.061	362.43
684.4	361.31
684.738	359.87
685.077	360.74
685.416	361.72
685.754	361.29
686.093	360.75
686.431	361.36
686.77	362.09
687.108	360.31
687.447	361.8
687.785	362.4
688.123	360.56
688.461	359.73
688.799	361.44
689.137	362.85
689.475	363.3
689.813	361.49
690.151	361.11
690.489	360.53
690.827	362.23
691.164	363.06
691.502	360.71
691.84	360.78
692.177	361.19
692.515	360.4
692.852	362.67
693.189	361.19
693.527	362.23
693.864	361.54
694.201	360.48
694.538	361.99
694.875	360.01
695.212	360.77
695.549	361.76
695.886	360.72
696.223	359.12
696.56	359.5
696.897	360.53
697.233	361.1
697.57	361.02
697.906	360.07
698.243	359.93
698.579	361.88
698.916	360.3
699.252	360.19
699.588	358.28
699.924	360.27
700.261	360.68
700.597	361.26
700.933	361.23
701.269	360.41
701.605	358.99
701.941	359.76
702.276	360.43
702.612	361.6
702.948	361.24
703.283	360.97
703.619	359.53
703.954	362.01
704.29	360.89
704.625	360.6
704.961	360.67
705.296	359.79
705.631	358.15
705.966	360.56
706.301	358.42
706.637	361.32
706.972	360.99
707.306	362.38
707.641	363.85
707.976	360.56
708.311	359.79
708.646	360.49
708.98	362.31
709.315	363.01
709.649	361.32
709.984	364.23
710.318	363.01
710.653	362.07
710.987	358.83
711.321	360.56
711.655	360.3
711.989	362.57
712.324	361.62
712.658	360.21
712.992	362.27
713.325	362.45
713.659	361.53
713.993	359.72
714.327	359.37
714.66	359.72
714.994	359.47
715.328	359.4
715.661	358.67
715.994	361.09
716.328	359.58
716.661	357.44
716.994	359.67
717.328	359.99
717.661	360.56
717.994	359.47
718.327	356.91
718.66	359.55
718.993	359.18
719.325	360.21
719.658	360.49
719.991	358.42
720.324	359.35
720.656	360.06
720.989	360.35
721.321	357.99
721.654	358
721.986	359.78
722.318	359.78
722.651	361.42
722.983	359.12
723.315	359.41
723.647	359.35
723.979	358.9
724.311	360.55
724.643	359.31
724.975	357.52
725.307	360.67
725.638	359.28
725.97	358.54
726.302	358.29
726.633	358.79
726.965	359.76
727.296	360.04
727.628	358.15
727.959	358.95
728.29	357.3
728.621	358.37
728.952	358.02
729.284	358.63
729.615	357.45
729.945	358.17
730.276	359.45
730.607	359.27
730.938	359.5
731.269	360.33
731.599	358.8
731.93	359.32
732.261	359.81
732.591	359.91
732.922	359.7
733.252	359.31
733.582	358.45
733.912	358.14
734.243	358.83
734.573	359.4
734.903	360.23
735.233	358.49
735.563	360.01
735.893	357.07
736.223	356.92
736.552	358.43
736.882	357.33
737.212	358.76
737.541	357.12
737.871	358.86
738.2	361.26
738.53	358.59
738.859	358.29
739.188	359.74
739.518	357.97
739.847	358.86
740.176	359.19
740.505	360.96
740.834	359.07
741.163	360.2
741.492	358.48
741.821	360.26
742.15	358.28
742.478	355.95
742.807	356.49
743.136	359.03
743.464	359.7
743.793	358.08
744.121	359.89
744.449	359.38
744.778	357.07
745.106	357.67
745.434	359.65
745.762	357.72
746.09	359.13
746.418	358.63
746.746	358.95
747.074	358.82
747.402	359.33
747.73	359.33
748.057	358.48
748.385	356.73
748.712	357.79
749.04	356.81
749.367	358.82
749.695	359.03
750.022	358.52
750.349	358.82
750.677	357.22
751.004	363.77
751.331	359.19
751.658	356.83
751.985	359.76
752.312	357.55
752.639	357.96
752.966	358.42
753.292	356.99
753.619	357.97
753.946	357.63
754.272	356.57
754.599	358.62
754.925	360.33
755.251	358.02
755.578	358.09
755.904	357.53
756.23	358.52
756.556	358.87
756.882	359.58
757.208	358.28
757.534	359.11
757.86	357.54
758.186	357.81
758.512	358.38
758.838	357.92
759.163	358.71
759.489	357.63
759.814	359.64
760.14	358.19
760.465	357.44
760.791	359.16
761.116	357.51
761.441	356.4
761.766	357.84
762.092	358.62
762.417	358.03
762.742	359.47
763.066	358.32
763.391	358.71
763.716	359.43
764.041	356.99
764.366	357.97
764.69	357.28
765.015	357.19
765.339	356.88
765.664	357.67
765.988	358.38
766.312	356.38
766.637	358.17
766.961	357.13
767.285	357.81
767.609	358.15
767.933	357.61
768.257	357.37
768.581	356.77
768.905	357.46
769.229	355.99
769.552	357.57
769.876	356.14
770.2	355.63
770.523	357.78
770.847	357.56
771.17	358.2
771.493	357.01
771.817	354.8
772.14	357.47
772.463	357.58
772.786	357.39
773.109	356.61
773.432	357.3
773.755	357.49
774.078	356.32
774.401	356.14
774.724	355.24
775.046	357.77
775.369	358.34
775.692	357.82
776.014	356.14
776.336	358.18
776.659	355.51
776.981	355.86
777.303	359.5
777.626	358.33
777.948	357.21
778.27	357.16
778.592	356.94
778.914	356.17
779.236	358.76
779.557	357.06
779.879	355.55
780.201	356.45
780.523	356.16
780.844	357.17
781.166	358.82
781.487	358.13
781.809	355.26
782.13	356.47
782.451	358.42
782.772	358.32
783.094	357.25
783.415	356.73
783.736	357.29
784.057	356.81
784.378	358.09
784.698	357.54
785.019	357.62
785.34	355.99
785.661	356.23
785.981	356.59
786.302	357.5
786.622	357.87
786.943	355.72
787.263	358.44
787.583	356.34
787.903	357.28
788.224	356.14
788.544	357.21
788.864	357.18
789.184	356.48
789.504	357.9
789.824	356.9
790.143	357.77
790.463	355.66
790.783	357.94
791.102	355.68
791.422	353.27
791.741	354.95
792.061	358.06
792.38	354.65
792.699	355.1
793.019	357.05
793.338	357
793.657	356.19
793.976	355.54
794.295	356.04
794.614	356.37
794.933	356.28
795.252	354.91
795.57	356.6
795.889	356.01
796.208	358.16
796.526	355.78
796.845	356.7
797.163	353.99
797.482	355.29
797.8	357.24
798.118	355.45
798.436	355.87
798.754	356.75
799.073	357.35
799.391	355.69
799.708	356.89
800.026	356.72
800.344	356.32
800.662	357.68
800.98	358.11
801.297	357.34
801.615	356.05
801.932	355.52
802.25	355.48
802.567	356.13
802.884	356.34
803.202	355.26
803.519	355.52
803.836	355.33
804.153	355.15
804.47	356.74
804.787	356.82
805.104	355.69
805.421	356.06
805.737	354.26
806.054	354.98
806.371	356.14
806.687	354
807.004	356.47
807.32	355.38
807.637	356.33
807.953	356.22
808.269	355.85
808.585	353.97
808.902	356.2
809.218	354.59
809.534	355.58
809.85	355.35
810.165	356.51
810.481	355.09
810.797	354.99
811.113	354.06
811.428	356.54
811.744	355.54
812.059	355.65
812.375	357.72
812.69	356.49
813.006	356.47
813.321	354.94
813.636	356.4
813.951	355.9
814.266	356.89
814.581	355.4
814.896	354.6
815.211	356.37
815.526	355.13
815.841	353.42
816.155	356.45
816.47	357.6
816.784	354.48
817.099	353.86
817.413	356.38
817.728	355.34
818.042	354.44
818.356	355.8
818.67	357.38
818.985	357.05
819.299	354.82
819.613	357.08
819.926	354.25
820.24	353.62
820.554	354.71
820.868	356.12
821.182	354.98
821.495	357.03
821.809	355.2
822.122	356.24
822.436	353.74
822.749	354.4
823.062	356.04
823.376	355.82
823.689	355.7
824.002	355.57
824.315	354.71
824.628	355.15
824.941	354.67
825.254	356.78
825.566	353.99
825.879	356.45
826.192	354.38
826.504	353
826.817	354.25
827.129	353.15
827.442	353.75
827.754	353.21
828.066	354.34
828.379	353.62
828.691	353.66
829.003	355.45
829.315	356.52
829.627	354.63
829.939	355.95
830.251	355.12
830.562	355.29
830.874	355.98
831.186	353.88
831.497	354.67
831.809	355.06
832.12	354.92
832.432	355.34
832.743	355.01
833.054	354.24
833.365	355.29
833.676	354.86
833.988	354.58
834.299	355.97
834.61	353.63
834.92	355.33
835.231	355.18
835.542	354.7
835.853	354.31
836.163	355.61
836.474	354.77
836.784	355.46
837.095	356.13
837.405	354.73
837.715	355.43
838.026	355.73
838.336	355.78
838.646	355.03
838.956	354.44
839.266	354.41
839.576	354.94
839.886	354.32
840.195	355.27
840.505	353.06
840.815	354.98
841.124	355.03
841.434	355.31
841.743	354.69
842.053	355.11
842.362	356.63
842.671	355.1
842.981	353.79
843.29	356.52
843.599	354.15
843.908	355.32
844.217	353.87
844.526	354.44
844.835	354.56
845.143	355.22
845.452	355.44
845.761	353.8
846.069	353.46
846.378	357.2
846.686	354.45
846.995	354.59
847.303	354.04
847.611	354.06
847.919	354.05
848.227	355.05
848.535	352.95
848.843	352.96
849.151	353.19
849.459	354.91
849.767	354.34
850.075	354.95
850.382	354.35
850.69	355.73
850.998	355.69
851.305	353.92
851.612	353.21
851.92	354.7
852.227	354.35
852.534	353.8
852.841	355.16
853.148	354.82
853.455	353.79
853.762	354.6
854.069	351.9
854.376	353.45
854.683	353.13
854.99	354.09
855.296	352.31
855.603	354.6
855.909	353.11
856.216	353.53
856.522	353.63
856.828	354.67
857.135	355.27
857.441	354.39
857.747	353.54
858.053	354.89
858.359	353.9
858.665	353.56
858.971	354.11
859.276	352.96
859.582	354.46
859.888	355.14
860.193	352.85
860.499	355.23
860.804	354.1
861.11	353.31
861.415	354.49
861.72	353.91
862.026	353.83
862.331	354.24
862.636	353.15
862.941	352.32
863.246	352.69
863.551	353.15
863.855	352.55
864.16	353.36
864.465	351.86
864.769	352.52
865.074	353.57
865.378	355.08
865.683	352.92
865.987	353.83
866.291	353.35
866.596	353.97
866.9	352.62
867.204	352.95
867.508	353.75
867.812	353.17
868.116	353.04
868.42	352.78
868.723	351.54
869.027	351.31
869.331	353.75
869.634	353.46
869.938	353.25
870.241	352.78
870.544	351.2
870.848	352.97
871.151	353.53
871.454	351.99
871.757	353.78
872.06	353.84
872.363	351.5
872.666	353.96
872.969	353.29
873.272	354.6
873.574	353.71
873.877	352.94
874.18	353.51
874.482	353.03
874.785	355.63
875.087	353.54
875.389	354.28
875.692	352.41
875.994	355.5
876.296	354.79
876.598	354.22
876.9	352.63
877.202	354.29
877.504	352.62
877.805	350.54
878.107	354.05
878.409	352.47
878.71	353.46
879.012	352.83
879.313	352.55
879.615	353.17
879.916	353.03
880.217	353.84
880.518	353.52
880.82	352.31
881.121	353.25
881.422	351.07
881.723	352.49
882.023	352.53
882.324	354.46
882.625	353.62
882.926	353.18
883.226	351.4
883.527	351.23
883.827	352.83
884.128	350.77
884.428	353.1
884.728	353.78
885.028	351.97
885.328	351.44
885.629	354.16
885.929	352.36
886.228	353.97
886.528	353.66
886.828	353.2
887.128	352.65
887.427	352.92
887.727	352.17
888.027	353.87
888.326	353.02
888.625	351.88
888.925	352.32
889.224	350.79
889.523	350.47
889.822	354.77
890.121	351.38
890.42	352.19
890.719	351.06
891.018	352.09
891.317	354.17
891.616	353.63
891.914	352.93
892.213	350.98
892.512	352.84
892.81	353.05
893.108	353.28
893.407	352.31
893.705	354.6
894.003	354.51
894.301	352.4
894.599	351.84
894.897	351.62
895.195	351.84
895.493	352.3
895.791	352.84
896.089	351.25
896.386	350.43
896.684	352.48
896.981	351.08
897.279	353.04
897.576	350.39
897.874	353.01
898.171	352.48
898.468	352.06
898.765	350.89
899.062	351.21
899.359	352.41
899.656	353.49
899.953	351.08
900.25	352.65
900.547	353.79
900.843	352.99
901.14	353.21
901.436	351.17
901.733	351.11
902.029	351.85
902.325	354.46
902.622	352.35
902.918	352.3
903.214	353.86
903.51	352.58
903.806	352.08
904.102	352.21
904.398	351.66
904.694	352.23
904.989	350.23
905.285	353.12
905.581	352.19
905.876	354
906.171	352.02
906.467	352.51
906.762	350.84
907.057	351.56
907.353	352.48
907.648	349.18
907.943	351.42
908.238	350.9
908.533	351.17
908.827	352.71
909.122	350.93
909.417	351.53
909.711	350.24
910.006	352.55
910.301	351.8
910.595	352.66
910.889	352.89
911.184	351.41
911.478	351.9
911.772	350.81
912.066	350.62
912.36	351.4
912.654	351.15
912.948	351.48
913.242	353.44
913.536	350.95
913.829	351.96
914.123	352.62
914.416	348.95
914.71	351
915.003	351.57
915.297	351.84
915.59	353.3
915.883	353.44
916.176	353.04
916.469	351.04
916.762	350.16
917.055	350.27
917.348	350.24
917.641	350.6
917.934	349.75
918.226	350.56
918.519	351.88
918.811	353.77
919.104	349.78
919.396	350.48
919.689	350.04
919.981	351.73
920.273	351.05
920.565	352.93
920.857	350.99
921.149	352.22
921.441	351.29
921.733	352.48
922.025	350.56
922.316	349.98
922.608	350.48
922.9	351.1
923.191	352.04
923.483	352.02
923.774	352.13
924.065	352.37
924.357	351.53
924.648	351.88
924.939	351.84
925.23	352.3
925.521	350.48
925.812	349.1
926.102	349.06
926.393	350.99
926.684	352.27
926.975	351.95
927.265	349.64
927.556	351.47
927.846	350.98
928.136	350.1
928.427	352.79
928.717	348.76
929.007	351.03
929.297	352.41
929.587	351.45
929.877	349.45
930.167	350.35
930.457	349.88
930.746	352.05
931.036	351.21
931.325	350.4
931.615	348.72
931.904	350.68
932.194	351.01
932.483	350.13
932.772	350.05
933.062	350.1
933.351	351.08
933.64	352.75
933.929	350.68
934.218	350.07
934.506	351.31
934.795	349.81
935.084	350.32
935.372	353.49
935.661	350.66
935.949	350.02
936.238	351.75
936.526	352.4
936.815	350.71
937.103	349.86
937.391	350.66
937.679	351.88
937.967	351.3
938.255	350.52
938.543	349.42
938.831	350.02
939.118	350.88
939.406	350.38
939.693	349.82
939.981	352.04
940.268	350.75
940.556	351.46
940.843	351
941.13	353.1
941.418	350.7
941.705	348.65
941.992	351.57
942.279	351.08
942.566	350.59
942.852	351.82
943.139	351.46
943.426	352.02
943.712	350.52
943.999	351.06
944.285	350.86
944.572	351.33
944.858	348.43
945.144	352.06
945.431	351.2
945.717	351.24
946.003	350.09
946.289	349.32
946.575	351.48
946.861	348.24
947.146	348.65
947.432	352.6
947.718	350.36
948.003	350.77
948.289	349.82
948.574	349.92
948.86	350.15
949.145	351.15
949.43	350.4
949.715	348.85
950	349.71
950.285	349.74
950.57	350.48
950.855	349.53
951.14	352.25
951.425	351.42
951.709	349.8
951.994	350.72
952.278	349.63
952.563	351.25
952.847	351.07
953.132	351.68
953.416	349.78
953.7	348.85
953.984	352.32
954.268	349.92
954.552	348.68
954.836	351.55
955.12	350.57
955.404	349.8
955.687	349.85
955.971	351.45
956.254	351.25
956.538	349.89
956.821	350.94
957.105	350.56
957.388	350.68
957.671	350.61
957.954	348.43
958.237	351.78
958.52	350.59
958.803	350.58
959.086	348.83
959.369	350.61
959.652	349.72
959.934	349.74
960.217	350.11
960.499	349.44
960.782	349.05
961.064	349.74
961.346	350.68
961.629	348.97
961.911	350.13
962.193	350.59
962.475	349.21
962.757	349.55
963.039	349.94
963.32	351.22
963.602	349.31
963.884	351.36
964.165	349.51
964.447	349.8
964.728	349.75
965.01	348.6
965.291	350.12
965.572	350.23
965.853	349.92
966.134	350.16
966.415	350.65
966.696	349.74
966.977	348.99
967.258	350.78
967.539	348.54
967.819	351.15
968.1	351.21
968.38	348.19
968.661	348.92
968.941	350.97
969.222	350.31
969.502	351.23
969.782	350.52
970.062	349.18
970.342	350.79
970.622	349.11
970.902	348.63
971.182	348.4
971.462	349.04
971.741	349.95
972.021	349.88
972.3	350.93
972.58	349.64
972.859	349.39
973.138	349.84
973.418	348.77
973.697	349.34
973.976	349.13
974.255	351.29
974.534	349.9
974.813	351.51
975.092	349.18
975.37	347.66
975.649	349.83
975.928	350.63
976.206	349.88
976.485	348.04
976.763	348.77
977.041	348.86
977.32	349.24
977.598	350.94
977.876	349.78
978.154	351.17
978.432	348.99
978.71	350.27
978.988	349.63
979.265	350.24
979.543	348.62
979.821	351.32
980.098	349.04
980.376	349.97
980.653	349.56
980.93	350.44
981.208	348.68
981.485	348.7
981.762	349.31
982.039	347.92
982.316	349.22
982.593	349.72
982.87	349.65
983.146	349.58
983.423	348.87
983.7	350
983.976	349.35
984.253	349.36
984.529	349.09
984.805	347.59
985.082	349.04
985.358	350.15
985.634	349.03
985.91	349.31
986.186	348.47
986.462	347.54
986.738	349.84
987.013	348.17
987.289	348.22
987.565	350.13
987.84	349.86
988.116	348.74
988.391	347.85
988.666	348.65
988.942	349.14
989.217	349.2
989.492	347.72
989.767	347.74
990.042	347.67
990.317	345.73
990.592	348.91
990.866	351.59
991.141	348.67
991.416	348.15
991.69	348.74
991.964	348.92
992.239	349.91
992.513	349.34
992.787	347.2
993.062	348.68
993.336	348.2
993.61	348.7
993.884	349.34
994.158	348.9
994.431	349.24
994.705	348.63
994.979	350.63
995.252	348.8
995.526	348.46
995.799	348.35
996.073	349.55
996.346	348.7
996.619	348.99
996.892	347.47
997.165	349.11
997.438	348.1
997.711	349.81
997.984	348.29
998.257	349.5
998.53	347.24
998.802	350.18
999.075	348.41
999.347	348.14
999.62	349.29
999.892	348.84
1000.165	348.03
1000.437	346.87
1000.709	349.28
1000.981	347.87
1001.253	348.87
1001.525	348.97
1001.797	348.21
1002.068	349.35
1002.34	348.99
1002.612	349.1
1002.883	348.92
1003.155	349.74
1003.426	346.81
1003.698	348.61
1003.969	348.36
1004.24	347.34
1004.511	348.35
1004.782	347.38
1005.053	347.56
1005.324	347.54
1005.595	347.2
1005.866	349.56
1006.136	348.67
1006.407	348.68
1006.678	346.65
1006.948	347.26
1007.218	347.74
1007.489	348.12
1007.759	347.89
1008.029	347.11
1008.299	349.17
1008.569	348.23
1008.839	347.34
1009.109	346.85
1009.379	346.57
1009.649	347.47
1009.918	347.53
1010.188	347.23
1010.458	347
1010.727	348.12
1010.996	345.94
1011.266	348.36
1011.535	347.62
1011.804	349.21
1012.073	348.26
1012.342	348.16
1012.611	346.67
1012.88	348.69
1013.149	347.66
1013.417	348.84
1013.686	348.51
1013.955	348.49
1014.223	348.48
1014.492	346.56
1014.76	348.36
1015.028	348.23
1015.296	347.88
1015.565	348.6
1015.833	347.97
1016.101	349.49
1016.368	349.1
1016.636	347
1016.904	347.51
1017.172	349.09
1017.439	347.23
1017.707	348.11
1017.974	344.38
1018.242	346.28
1018.509	347.04
1018.776	348.05
1019.044	347.42
1019.311	348.23
1019.578	346.37
1019.845	346.94
1020.112	350.08
1020.378	350.08
1020.645	350.08
