Data from 190618_Kr_35K_film_FLMS138901_17-43-47-446.txt Node
Date: Tue Jun 18 17:43:47 EDT 2019
User: pSAM
Spectrometer: FLMS13890
Trigger mode: 0
Integration Time (sec): 5.000000E-3
Scans to average: 1000
Electric dark correction enabled: true
Nonlinearity correction enabled: false
Boxcar width: 0
XAxis mode: Wavelengths
Number of Pixels in Spectrum: 2048
>>>>>Begin Spectral Data<<<<<
342.097	-60.14
342.483	-60.14
342.868	-60.14
343.254	-100.26
343.639	-100.97
344.025	-101.47
344.41	-97.89
344.796	-90.37
345.181	-77.62
345.567	-69.94
345.952	-53.61
346.337	-35.41
346.722	-18.16
347.107	0.45
347.493	18.7
347.878	36.65
348.263	59.09
348.648	80.05
349.033	98.34
349.418	115.23
349.802	135.95
350.187	153.56
350.572	172.99
350.957	243.55
351.342	397.53
351.726	425.88
352.111	437.99
352.495	454.34
352.88	469.34
353.264	482.34
353.649	495.48
354.033	506.45
354.418	517.68
354.802	526.29
355.186	535.15
355.57	543.22
355.955	552.33
356.339	556.01
356.723	561.53
357.107	565.6
357.491	599.72
357.875	574.33
358.259	577.17
358.643	578.87
359.026	580.17
359.41	582.55
359.794	583.32
360.178	586.98
360.561	586.53
360.945	584.34
361.329	584.69
361.712	586.69
362.096	586.68
362.479	587.67
362.862	585.72
363.246	584.65
363.629	588.11
364.012	584.25
364.396	586.84
364.779	586.53
365.162	587.41
365.545	587.93
365.928	589.27
366.311	587.32
366.694	592.18
367.077	593.69
367.46	595.06
367.843	597.4
368.226	598.43
368.608	598.11
368.991	599.98
369.374	599.47
369.756	602.14
370.139	601.67
370.521	602.49
370.904	602.39
371.286	606.1
371.669	605.08
372.051	605.57
372.433	609.41
372.816	611.13
373.198	612.79
373.58	615.3
373.962	617.08
374.344	620.66
374.726	624.1
375.108	625.3
375.49	630.16
375.872	632.05
376.254	631.35
376.636	634.02
377.018	631.45
377.399	636.85
377.781	635.81
378.163	632.3
378.544	632.17
378.926	636.99
379.307	642.41
379.689	647.28
380.07	652.24
380.452	657.06
380.833	661.39
381.214	664.44
381.596	667.01
381.977	675.03
382.358	678.98
382.739	693.03
383.12	700.39
383.501	694.98
383.882	690.47
384.263	688.31
384.644	690.47
385.025	700.49
385.406	696.7
385.787	702.56
386.167	705.01
386.548	709.69
386.929	718.61
387.309	725.19
387.69	733.7
388.07	744.25
388.451	746.53
388.831	755.97
389.211	747.55
389.592	739.13
389.972	738.06
390.352	742.8
390.733	743.66
391.113	743.13
391.493	750.35
391.873	761.9
392.253	765.06
392.633	785.17
393.013	787.65
393.393	794.85
393.772	792.72
394.152	792.56
394.532	797.62
394.912	801.14
395.291	798.45
395.671	801.58
396.05	793.79
396.43	794.46
396.809	797.39
397.189	808.72
397.568	815.35
397.948	820.91
398.327	834.45
398.706	840.57
399.085	843.24
399.465	840.01
399.844	838.23
400.223	829.23
400.602	833.05
400.981	832.94
401.36	832.35
401.739	831.06
402.117	841.19
402.496	833.76
402.875	838.63
403.254	848.46
403.632	845.36
404.011	855.88
404.39	867.24
404.768	871.55
405.147	888.62
405.525	894.1
405.903	900.14
406.282	905.27
406.66	900.78
407.038	887.48
407.417	884.37
407.795	887.53
408.173	890.57
408.551	892.79
408.929	898.56
409.307	905.45
409.685	911.31
410.063	915.69
410.441	915.86
410.818	919.36
411.196	921.8
411.574	933.62
411.952	933.56
412.329	952.47
412.707	973.12
413.084	983.25
413.462	987.35
413.839	991.96
414.217	977.12
414.594	980.66
414.971	982.34
415.349	987.29
415.726	989.48
416.103	982.28
416.48	986.66
416.857	993.3
417.234	1007.45
417.611	1010.87
417.988	1013.2
418.365	1003.36
418.742	1008.37
419.119	1015.89
419.495	1022.14
419.872	1019.1
420.249	1048.02
420.625	1058.87
421.002	1076.82
421.379	1086.92
421.755	1104.49
422.131	1124.9
422.508	1124.77
422.884	1128.68
423.26	1136.49
423.637	1154.87
424.013	1129.58
424.389	1116.61
424.765	1107.16
425.141	1114.61
425.517	1109.07
425.893	1104.32
426.269	1100.06
426.645	1104.41
427.021	1145.67
427.397	1163.8
427.772	1175.67
428.148	1170.3
428.524	1171.36
428.899	1156.55
429.275	1177.44
429.651	1200
430.026	1220.38
430.401	1234.87
430.777	1233.32
431.152	1226.17
431.527	1212.93
431.903	1216.05
432.278	1210.4
432.653	1211.14
433.028	1218.51
433.403	1255.02
433.778	1293.45
434.153	1296.94
434.528	1283.83
434.903	1279.28
435.278	1289.03
435.653	1301.84
436.027	1303.32
436.402	1317.82
436.777	1324.16
437.151	1333.02
437.526	1344.93
437.9	1344.94
438.275	1365.44
438.649	1362.64
439.023	1377.13
439.398	1377.45
439.772	1373.86
440.146	1378.33
440.52	1397.84
440.895	1432.45
441.269	1477.48
441.643	1505.39
442.017	1501.91
442.391	1491.58
442.765	1481.52
443.138	1476.28
443.512	1496.1
443.886	1508.31
444.26	1515.9
444.633	1524.51
445.007	1527.25
445.38	1528.16
445.754	1536.65
446.127	1548.28
446.501	1545.64
446.874	1541.22
447.248	1532.24
447.621	1545.81
447.994	1542.66
448.367	1546.7
448.741	1553.62
449.114	1546.26
449.487	1565.36
449.86	1575.68
450.233	1574.89
450.606	1571.48
450.978	1566.74
451.351	1587.56
451.724	1577.06
452.097	1574.66
452.469	1587.39
452.842	1586.42
453.215	1593.41
453.587	1594.28
453.96	1606.18
454.332	1603.31
454.704	1619.23
455.077	1632.99
455.449	1649.5
455.821	1641.21
456.194	1668.32
456.566	1674.39
456.938	1691.84
457.31	1707.1
457.682	1737.97
458.054	1746.95
458.426	1771.71
458.798	1792.18
459.17	1792.85
459.541	1791.66
459.913	1775.52
460.285	1771.01
460.656	1776.36
461.028	1768.07
461.399	1794.55
461.771	1794.7
462.142	1811.87
462.514	1829.96
462.885	1855.42
463.256	1911.67
463.628	1930.87
463.999	1956.05
464.37	2003.68
464.741	2017.76
465.112	1993.5
465.483	2010.39
465.854	2023.85
466.225	2008.52
466.596	1999.07
466.967	2033.81
467.338	2033.42
467.708	2070.49
468.079	2089.98
468.45	2096.57
468.82	2096.4
469.191	2102.64
469.561	2103.43
469.932	2126.46
470.302	2113.68
470.673	2156.69
471.043	2170.98
471.413	2192.57
471.783	2227.08
472.154	2265.79
472.524	2300.67
472.894	2360.77
473.264	2388.38
473.634	2400.43
474.004	2400.83
474.374	2444.16
474.743	2465.63
475.113	2515.37
475.483	2539.45
475.853	2578.14
476.222	2603.68
476.592	2664.95
476.961	2654.9
477.331	2669.25
477.7	2710.45
478.07	2793.15
478.439	2807.5
478.808	2842.67
479.178	2855.61
479.547	2916.01
479.916	2950.4
480.285	3013.12
480.654	3020.66
481.023	3065.57
481.392	3104.96
481.761	3144.7
482.13	3186.16
482.499	3230.9
482.867	3249.66
483.236	3331.72
483.605	3406.39
483.973	3448.69
484.342	3522.21
484.71	3577.92
485.079	3676.85
485.447	4245.52
485.816	4740.33
486.184	4954.07
486.552	4549.07
486.921	4127.42
487.289	3908.21
487.657	3902.83
488.025	3889.54
488.393	3889.41
488.761	3927.72
489.129	4006.02
489.497	4042.89
489.865	4138.22
490.233	4175.5
490.6	4221.75
490.968	4211.83
491.336	4229.5
491.703	4254.94
492.071	4288.97
492.438	4344.65
492.806	4398.49
493.173	4472.29
493.541	4475.47
493.908	4470.59
494.275	4500.03
494.642	4521.65
495.01	4546.4
495.377	4566.35
495.744	4579.22
496.111	4668.14
496.478	4763.49
496.845	4766.87
497.211	4770.68
497.578	4795
497.945	4849.08
498.312	4914.78
498.678	4974.9
499.045	5058.89
499.412	5064.21
499.778	5056.81
500.145	5062.12
500.511	5066.68
500.878	5155.96
501.244	5222.37
501.61	5261.2
501.976	5255.7
502.343	5271.84
502.709	5337.62
503.075	5328.12
503.441	5328.77
503.807	5347.25
504.173	5334.54
504.539	5365.89
504.905	5411.18
505.27	5447.96
505.636	5465.1
506.002	5546.02
506.367	5561.86
506.733	5576.04
507.099	5550.22
507.464	5594.43
507.829	5614.6
508.195	5693.57
508.56	5710.21
508.926	5700.04
509.291	5694.85
509.656	5741.77
510.021	5768.54
510.386	5797.99
510.751	5813.86
511.116	5862.71
511.481	5902.89
511.846	5951.32
512.211	5952.87
512.576	5985.49
512.941	5990.53
513.305	6007.15
513.67	6038.66
514.035	6055.06
514.399	6092.57
514.764	6080.99
515.128	6124.05
515.493	6159.79
515.857	6206.16
516.221	6205.42
516.585	6257.61
516.95	6292.43
517.314	6310.21
517.678	6313.62
518.042	6342.36
518.406	6405.16
518.77	6393.79
519.134	6402.48
519.498	6461.81
519.862	6473.45
520.225	6450.54
520.589	6523.22
520.953	6563.77
521.316	6596.11
521.68	6589
522.043	6612.17
522.407	6603.7
522.77	6669.61
523.134	6751.97
523.497	6735.09
523.86	6812.98
524.223	6851.74
524.587	6886.49
524.95	6903.88
525.313	6918.29
525.676	6950
526.039	6959.41
526.402	6981.71
526.765	7061.95
527.127	7106.04
527.49	7151.69
527.853	7203.36
528.215	7196.2
528.578	7261.03
528.941	7270.97
529.303	7308.91
529.666	7358.15
530.028	7400.26
530.39	7452.95
530.753	7451.45
531.115	7474.14
531.477	7533.3
531.839	7575.26
532.201	7605.51
532.564	7689.42
532.926	7720.17
533.287	7821.54
533.649	7873.96
534.011	7912.74
534.373	7939.39
534.735	7994.15
535.097	8044.69
535.458	8096.89
535.82	8125.96
536.181	8103.98
536.543	8117.83
536.904	8101.35
537.266	8258.23
537.627	8320.83
537.988	8342.87
538.35	8394.57
538.711	8449.57
539.072	8488.06
539.433	8472.27
539.794	8555.3
540.155	8585.88
540.516	8648.79
540.877	8677.91
541.238	8747.61
541.599	8824.65
541.959	8873.78
542.32	8954.57
542.681	8960.74
543.041	8961.78
543.402	9013.11
543.762	9094.91
544.123	9094.98
544.483	9159.11
544.844	9192.08
545.204	9180.41
545.564	9183.48
545.924	9233.62
546.284	9259.56
546.644	9282.26
547.004	9332.87
547.364	9433.77
547.724	9490.23
548.084	9500.11
548.444	9596.1
548.804	9548.62
549.164	9582.52
549.523	9586.55
549.883	9603.42
550.242	9616.51
550.602	9618.76
550.961	9657.5
551.321	9668.05
551.68	9739.65
552.04	9756.66
552.399	9852.97
552.758	9867.89
553.117	9820.15
553.476	9974.98
553.835	10052.7
554.194	10080.06
554.553	10056.04
554.912	10070.24
555.271	10068.54
555.63	10146.13
555.989	10202.99
556.347	10227.79
556.706	10256.12
557.065	10256.43
557.423	10345.74
557.782	10395.1
558.14	10388.55
558.499	10471.84
558.857	10481.82
559.215	10444.05
559.573	10523.2
559.932	10551.37
560.29	10650.87
560.648	10709.6
561.006	10803.65
561.364	10801.84
561.722	10779.91
562.08	10828.7
562.438	10771.61
562.795	10850.37
563.153	10905.89
563.511	10936.27
563.868	11027.59
564.226	11069.64
564.583	11107.09
564.941	11057.29
565.298	11198.67
565.656	11223.41
566.013	11264.77
566.37	11276.18
566.727	11360.18
567.085	11513.16
567.442	11633.65
567.799	11704.27
568.156	11729.8
568.513	11849.47
568.87	11981.18
569.226	12285.68
569.583	12532.13
569.94	12635.7
570.297	12640.09
570.653	12578.99
571.01	12722.47
571.366	12989.27
571.723	13102.09
572.079	12996.5
572.436	12896.54
572.792	12838.09
573.148	13121.39
573.505	13351.7
573.861	13723.27
574.217	13711.57
574.573	13707.14
574.929	13693.58
575.285	13685.88
575.641	13774.49
575.997	13888.16
576.352	13963.62
576.708	13964.58
577.064	14156.68
577.42	14548.66
577.775	14869.54
578.131	14920.9
578.486	14632.48
578.842	14268.42
579.197	14389.24
579.552	14555.5
579.908	14881.9
580.263	15130.4
580.618	14883.85
580.973	15074.38
581.328	15879.13
581.683	16565.22
582.038	16652.84
582.393	15748
582.748	15064.59
583.103	14618.84
583.458	14397.63
583.812	14471.46
584.167	14902.5
584.522	15277.21
584.876	15522.79
585.231	15548.93
585.585	15591.77
585.939	15262.38
586.294	15030.15
586.648	14908.35
587.002	14957.27
587.356	15283.96
587.711	15639.41
588.065	15590.78
588.419	15733.51
588.773	15439.73
589.127	15117.14
589.48	15001.15
589.834	14843.25
590.188	14898.7
590.542	14909.49
590.895	14732.85
591.249	14807.43
591.603	14815.17
591.956	14892.29
592.309	15029.19
592.663	15355.38
593.016	15708.02
593.369	15891.49
593.723	15640.4
594.076	15514.63
594.429	15596.52
594.782	15927.91
595.135	16196.32
595.488	16156.69
595.841	15950.3
596.194	15672.31
596.547	15497.6
596.899	15411.38
597.252	15517.95
597.605	15631.65
597.957	15560.36
598.31	15589.06
598.662	15765.65
599.015	15919.83
599.367	16064.04
599.719	15908.96
600.072	15959.54
600.424	16068.5
600.776	16272.95
601.128	16332.5
601.48	16318.66
601.832	16309.61
602.184	16303.73
602.536	16477.26
602.888	16615.19
603.24	16929.5
603.592	16991
603.943	16762.56
604.295	16503.91
604.646	16332.37
604.998	16484.48
605.349	16545.83
605.701	16622.85
606.052	16536.07
606.404	16551.2
606.755	16643.07
607.106	16748.28
607.457	16600.39
607.808	16639.38
608.159	16657.19
608.51	16646.46
608.861	16635.71
609.212	16501.56
609.563	16716.73
609.914	16928.14
610.265	16965.7
610.615	17107.81
610.966	17033.98
611.316	17184.11
611.667	17244.73
612.017	17256.32
612.368	16984.23
612.718	17346.89
613.068	17418.31
613.419	17488.91
613.769	17389.31
614.119	17391.47
614.469	17410.03
614.819	17226.03
615.169	17239.62
615.519	17427.83
615.869	17443.58
616.219	17365.95
616.568	17130.95
616.918	17132.55
617.268	17327.1
617.617	17340.26
617.967	17320.75
618.316	17241.95
618.666	17254.16
619.015	17267.89
619.364	17294.18
619.714	17548.13
620.063	17564.68
620.412	17606.67
620.761	17481.71
621.11	17533
621.459	17379.49
621.808	17519.78
622.157	17802.8
622.506	17901.87
622.855	18041.83
623.203	18034.27
623.552	18035.5
623.901	18010.22
624.249	17902.91
624.598	17958.77
624.946	17872.79
625.295	17780.98
625.643	17777.67
625.991	17963.46
626.34	17968.4
626.688	17911.45
627.036	18059.48
627.384	18059.41
627.732	18096.24
628.08	18048.91
628.428	18058.83
628.776	18130.79
629.124	18249.03
629.471	18393
629.819	18454.85
630.167	18395.4
630.514	18348.65
630.862	18184.02
631.209	18237.88
631.557	18353.13
631.904	18391.6
632.251	18498.52
632.599	18426.44
632.946	18410.82
633.293	18477.31
633.64	18464.08
633.987	18581.89
634.334	18613.35
634.681	18582.2
635.028	18649.41
635.375	18676.56
635.722	18820.41
636.068	18845.87
636.415	18817.7
636.762	18878.28
637.108	18915.17
637.455	18811.43
637.801	18892.54
638.147	18997.2
638.494	18951.06
638.84	19137.83
639.186	19012.64
639.532	19021.66
639.878	19080.42
640.225	19155.82
640.571	19182.6
640.916	19247.82
641.262	19353.66
641.608	19241.78
641.954	19214.59
642.3	19242.29
642.645	19300.55
642.991	19386.94
643.337	19549.81
643.682	19490.14
644.028	19441.54
644.373	19479.69
644.718	19567.17
645.064	19547.4
645.409	19515.36
645.754	19571.86
646.099	19660.52
646.444	19642.23
646.789	19838.28
647.134	19810.42
647.479	19760.78
647.824	19793.7
648.169	19881.26
648.513	20067.45
648.858	20074.72
649.203	20100.94
649.547	20074.47
649.892	20060.07
650.236	20033.63
650.581	20015.67
650.925	20013.69
651.269	20103.5
651.613	20343.42
651.958	20315
652.302	20350.25
652.646	20313.13
652.99	20270.92
653.334	20419.36
653.678	20303.62
654.022	20306.52
654.365	20249.75
654.709	20303.64
655.053	20391.69
655.396	20962.31
655.74	30673.48
656.083	45461.04
656.427	50419.86
656.77	45624.6
657.114	28955.56
657.457	23091.24
657.8	21524.27
658.143	21053.51
658.486	20733.57
658.83	20618.35
659.173	20488.72
659.516	20535.33
659.858	20441.25
660.201	20377.86
660.544	20321.87
660.887	20322.1
661.229	20419.98
661.572	20431.81
661.915	20572.09
662.257	20579.19
662.6	20706.74
662.942	20730.68
663.284	20715.5
663.627	20702.74
663.969	20685.46
664.311	20810.12
664.653	20797.46
664.995	20845.92
665.337	20765.54
665.679	20677.87
666.021	20702.44
666.363	20563.16
666.705	20740
667.046	20767.49
667.388	20685.8
667.73	20773.44
668.071	20879.55
668.413	20819.23
668.754	20862.01
669.096	20694.22
669.437	20796.78
669.778	20829.09
670.119	20931.57
670.461	20963.48
670.802	21108.92
671.143	21027.55
671.484	21061.48
671.825	21078.09
672.165	21105.08
672.506	21072.34
672.847	20969.77
673.188	21006.09
673.528	20922.5
673.869	20796.6
674.21	20894.55
674.55	20811.52
674.89	20629.7
675.231	20624.77
675.571	20696.97
675.911	20654.6
676.252	20744
676.592	20974.65
676.932	20940.39
677.272	20953.72
677.612	20999.59
677.952	21014.11
678.292	20992.55
678.631	20936.85
678.971	20867.98
679.311	20987.31
679.651	21022.85
679.99	21061.41
680.33	21071.26
680.669	20953.1
681.009	20923.64
681.348	21004.84
681.687	21046.39
682.026	21017.19
682.366	20959.86
682.705	21047.96
683.044	21144.48
683.383	21254.09
683.722	21354.95
684.061	21323.34
684.4	21409.46
684.738	21329.11
685.077	21250.93
685.416	21231.47
685.754	21373.35
686.093	21457.86
686.431	21643.23
686.77	21415.23
687.108	21331.12
687.447	21251.26
687.785	21374.15
688.123	21357.82
688.461	21412.74
688.799	21174.44
689.137	21074.15
689.475	21058.08
689.813	20854.64
690.151	21076.05
690.489	21053.46
690.827	21072.92
691.164	21134.86
691.502	21187.39
691.84	21127.03
692.177	21232.85
692.515	21254.62
692.852	21147.49
693.189	21203.61
693.527	21166.35
693.864	21165.17
694.201	21281.84
694.538	21204.55
694.875	21274.54
695.212	21193.45
695.549	21305.75
695.886	21258.11
696.223	21179.59
696.56	21271.03
696.897	21168.25
697.233	21255.41
697.57	21240.87
697.906	21357.56
698.243	21323.65
698.579	21190
698.916	21411.79
699.252	21363.81
699.588	21298.47
699.924	21234.75
700.261	21024.14
700.597	21039.23
700.933	21121.12
701.269	21025.44
701.605	21070.12
701.941	20953.51
702.276	21031.9
702.612	21016.11
702.948	21055.53
703.283	21123.82
703.619	21283.85
703.954	21290.16
704.29	21088.86
704.625	20972.43
704.961	20951.74
705.296	21187.34
705.631	21131.67
705.966	21157.39
706.301	21127.58
706.637	21181.13
706.972	21433.09
707.306	21369.4
707.641	21303.09
707.976	21229.91
708.311	21335.49
708.646	21369.03
708.98	21223
709.315	21218.34
709.649	21108.08
709.984	21097.3
710.318	20958.5
710.653	21016.52
710.987	21074.38
711.321	21118.94
711.655	21062.29
711.989	21017.8
712.324	21050.74
712.658	21027.32
712.992	21034.82
713.325	20902.66
713.659	20961.4
713.993	20924.22
714.327	20963.07
714.66	21030.9
714.994	21019.66
715.328	21024.65
715.661	21096.08
715.994	21106.32
716.328	20783.27
716.661	20701.64
716.994	20718.96
717.328	20703.4
717.661	20808.32
717.994	20781.82
718.327	20744.18
718.66	20649.39
718.993	20653.27
719.325	20593.94
719.658	20607.92
719.991	20613.54
720.324	20590.88
720.656	20458.29
720.989	20575.43
721.321	20775.51
721.654	20685.25
721.986	20479.09
722.318	20293.66
722.651	20332.33
722.983	20393.27
723.315	20549.83
723.647	20539.28
723.979	20515.1
724.311	20541.03
724.643	20422.78
724.975	20392.01
725.307	20431.92
725.638	20573.46
725.97	20455.36
726.302	20572.12
726.633	20435.63
726.965	20530.39
727.296	20347.98
727.628	20253.3
727.959	20239.59
728.29	20465.44
728.621	20342.47
728.952	20288.65
729.284	20026.01
729.615	19964.59
729.945	19897.32
730.276	19907.89
730.607	19893.62
730.938	19853.73
731.269	19882.94
731.599	19878.97
731.93	19941.83
732.261	19803.41
732.591	19836.68
732.922	19903.62
733.252	19845.85
733.582	19895.94
733.912	19888.95
734.243	19831.01
734.573	19764.98
734.903	19890.35
735.233	19650.88
735.563	19577.61
735.893	19672.3
736.223	19761.94
736.552	19801.45
736.882	19642.52
737.212	19492.2
737.541	19497.63
737.871	19494.78
738.2	19322.22
738.53	19128.01
738.859	19138.54
739.188	19060.85
739.518	19005.83
739.847	19057.07
740.176	18960.14
740.505	18994.02
740.834	18915.18
741.163	18819.78
741.492	18713.04
741.821	18669.08
742.15	18568.01
742.478	18476.78
742.807	18314.81
743.136	18462.78
743.464	18470.06
743.793	18417.09
744.121	18291.25
744.449	18085.4
744.778	18055.06
745.106	18237.46
745.434	18228.93
745.762	17989.38
746.09	17953.88
746.418	17942.7
746.746	17978.64
747.074	17954.7
747.402	18005.12
747.73	17843.09
748.057	17916.93
748.385	17834.76
748.712	17723.95
749.04	17663.28
749.367	17658.96
749.695	17601.45
750.022	17764.64
750.349	17666.47
750.677	17581.45
751.004	17502.35
751.331	17455.54
751.658	17469.61
751.985	17453.67
752.312	17402.95
752.639	17345.65
752.966	17281.86
753.292	17082.18
753.619	17039.14
753.946	16965.75
754.272	16921.93
754.599	17029.1
754.925	17036.99
755.251	16971.34
755.578	16942.28
755.904	16819.05
756.23	16696.32
756.556	16739.03
756.882	16770.33
757.208	16594.5
757.534	16580.11
757.86	16531.87
758.186	16571.06
758.512	16605.54
758.838	16646.2
759.163	16544.91
759.489	16464.6
759.814	16371.43
760.14	16439.63
760.465	16440.85
760.791	16293.45
761.116	16210.67
761.441	16140.29
761.766	16180.77
762.092	16033.11
762.417	15927.26
762.742	15931.33
763.066	15892.27
763.391	15943.94
763.716	15958.92
764.041	15956.68
764.366	15809.98
764.69	15557.28
765.015	15468.06
765.339	15495.89
765.664	15599.66
765.988	15568.97
766.312	15414.96
766.637	15291.58
766.961	15195.94
767.285	15156.72
767.609	15077.84
767.933	15001.72
768.257	15077.2
768.581	14985.06
768.905	15069.51
769.229	15184.51
769.552	15181.41
769.876	15276.83
770.2	15077.28
770.523	15034.77
770.847	14931.69
771.17	14919.89
771.493	14975.8
771.817	14916.22
772.14	14656.55
772.463	14537.26
772.786	14532.78
773.109	14413.28
773.432	14421.61
773.755	14290.02
774.078	14197.28
774.401	14121.54
774.724	14063.89
775.046	14105
775.369	14089.94
775.692	14005.18
776.014	13912.98
776.336	13806.67
776.659	13823
776.981	13851.28
777.303	13766.55
777.626	13644.99
777.948	13573.82
778.27	13635.01
778.592	13643.99
778.914	13622.14
779.236	13501.66
779.557	13457.72
779.879	13562.06
780.201	13502.05
780.523	13632.17
780.844	13577.31
781.166	13580.58
781.487	13627.5
781.809	13628.86
782.13	13707.12
782.451	13734.65
782.772	13874.25
783.094	13812.38
783.415	13790.84
783.736	13624.77
784.057	13671.19
784.378	13777.35
784.698	13782.41
785.019	13761.2
785.34	13480.24
785.661	13624.94
785.981	13749.78
786.302	13788.95
786.622	13810.63
786.943	13834.21
787.263	13624.86
787.583	13655.13
787.903	13824.55
788.224	13907.69
788.544	13962.45
788.864	13810.64
789.184	13860.03
789.504	13792.27
789.824	13828.58
790.143	13834.65
790.463	13786.51
790.783	13670.03
791.102	13613.93
791.422	13615.85
791.741	13550.82
792.061	13554.55
792.38	13688.46
792.699	13647.32
793.019	13633.72
793.338	13528.73
793.657	13509.65
793.976	13752.07
794.295	13818.46
794.614	13888.38
794.933	13751.53
795.252	13701.94
795.57	13633.09
795.889	13700.14
796.208	13660.65
796.526	13451.59
796.845	13480.12
797.163	13376.16
797.482	13311.56
797.8	13328.61
798.118	13290.79
798.436	13274.96
798.754	13215.32
799.073	13136.12
799.391	13142.56
799.708	13185.11
800.026	13253.27
800.344	13271.03
800.662	13232.02
800.98	13129.51
801.297	13099.81
801.615	13135.87
801.932	13159.36
802.25	13106.84
802.567	13022.01
802.884	12933.73
803.202	12782.95
803.519	12764.62
803.836	12795.57
804.153	12766.26
804.47	12709.8
804.787	12532.79
805.104	12439.35
805.421	12486.89
805.737	12457.85
806.054	12427.38
806.371	12426.78
806.687	12415.53
807.004	12352.79
807.32	12334.37
807.637	12301.36
807.953	12262.59
808.269	12277.9
808.585	12299.21
808.902	12121.48
809.218	12061.73
809.534	12021.51
809.85	12012.41
810.165	12002.24
810.481	12050.62
810.797	11938.38
811.113	11829.41
811.428	11725.41
811.744	11739.45
812.059	11821.93
812.375	11842.97
812.69	11764.77
813.006	11618.53
813.321	11542.97
813.636	11499.17
813.951	11622.42
814.266	11673.43
814.581	11627.39
814.896	11563.7
815.211	11497.77
815.526	11478.67
815.841	11455.42
816.155	11515.35
816.47	11465.79
816.784	11416.66
817.099	11275.02
817.413	11179.8
817.728	11160.86
818.042	11156.32
818.356	11233.92
818.67	11189.32
818.985	11090.19
819.299	10854.53
819.613	10808.75
819.926	10754.87
820.24	10834.8
820.554	10898.1
820.868	10916.53
821.182	10775.13
821.495	10710.73
821.809	10562.17
822.122	10572.12
822.436	10674.79
822.749	10700.2
823.062	10671.04
823.376	10616.71
823.689	10487.58
824.002	10395.78
824.315	10349.38
824.628	10417.13
824.941	10399.25
825.254	10271.76
825.566	10148.86
825.879	10137.66
826.192	10027.26
826.504	10028.25
826.817	10089.02
827.129	10143.36
827.442	10039.67
827.754	9952.38
828.066	9896.2
828.379	9770.08
828.691	9786.91
829.003	9797.47
829.315	9928.26
829.627	9954.23
829.939	9818.7
830.251	9770.22
830.562	9675.61
830.874	9666.04
831.186	9639.92
831.497	9693.99
831.809	9620.65
832.12	9478.77
832.432	9292.07
832.743	9229.11
833.054	9248.91
833.365	9298.83
833.676	9369
833.988	9362.33
834.299	9333.07
834.61	9316.6
834.92	9255.88
835.231	9239.57
835.542	9196.47
835.853	9167.16
836.163	9117.36
836.474	9043.18
836.784	8967.97
837.095	8868.75
837.405	8807.17
837.715	8834.03
838.026	8892.59
838.336	8888.55
838.646	8859.15
838.956	8720.34
839.266	8639.26
839.576	8567.73
839.886	8611.05
840.195	8710.56
840.505	8742.16
840.815	8726.46
841.124	8689.91
841.434	8632.39
841.743	8524.77
842.053	8507.64
842.362	8458.04
842.671	8417.28
842.981	8380.81
843.29	8257.9
843.599	8214.56
843.908	8181.01
844.217	8179.14
844.526	8248.71
844.835	8286.86
845.143	8282.54
845.452	8220.37
845.761	8181.49
846.069	8015.95
846.378	8086.15
846.686	8108.45
846.995	8140.13
847.303	8124.1
847.611	8109.28
847.919	7961.76
848.227	7856.66
848.535	7748.02
848.843	7702.98
849.151	7691.16
849.459	7753.64
849.767	7696.99
850.075	7655.43
850.382	7552.43
850.69	7514.96
850.998	7491.06
851.305	7488.62
851.612	7537.52
851.92	7563.37
852.227	7563.84
852.534	7479.67
852.841	7392.48
853.148	7350.57
853.455	7404.47
853.762	7394.46
854.069	7432.49
854.376	7404.62
854.683	7381.17
854.99	7327.2
855.296	7259.97
855.603	7193.56
855.909	7208.92
856.216	7244.14
856.522	7254.69
856.828	7195.3
857.135	7112.81
857.441	7065.42
857.747	6994.05
858.053	6987.48
858.359	6912.45
858.665	6945.75
858.971	6921.26
859.276	6846.96
859.582	6750.07
859.888	6714.71
860.193	6662.48
860.499	6642.52
860.804	6669.69
861.11	6658.64
861.415	6679.42
861.72	6671.74
862.026	6570.45
862.331	6504.46
862.636	6405.76
862.941	6392.01
863.246	6410.42
863.551	6473.34
863.855	6495.08
864.16	6472.09
864.465	6417.8
864.769	6356.46
865.074	6287.59
865.378	6242.03
865.683	6213.34
865.987	6256.72
866.291	6214.9
866.596	6168.53
866.9	6071.55
867.204	6007
867.508	5984.35
867.812	6011.06
868.116	6038.31
868.42	6028.43
868.723	6023.63
869.027	6006.96
869.331	5966.51
869.634	5938.73
869.938	5878.52
870.241	5887.66
870.544	5871.91
870.848	5854.69
871.151	5803.51
871.454	5746.08
871.757	5668.99
872.06	5607.55
872.363	5546.03
872.666	5534.4
872.969	5502.37
873.272	5524.96
873.574	5548.13
873.877	5558.81
874.18	5510.58
874.482	5433.76
874.785	5417.56
875.087	5355.56
875.389	5385.97
875.692	5384.69
875.994	5369.77
876.296	5325.22
876.598	5283.02
876.9	5215.66
877.202	5166.34
877.504	5133.19
877.805	5114.23
878.107	5124.2
878.409	5094.23
878.71	5116.64
879.012	5081.67
879.313	4999.56
879.615	4959.27
879.916	4921.34
880.217	4931.15
880.518	4942.02
880.82	4959.03
881.121	4928.07
881.422	4888.59
881.723	4824.16
882.023	4743.82
882.324	4719.74
882.625	4694.07
882.926	4710.86
883.226	4770.03
883.527	4709.02
883.827	4680.03
884.128	4646.05
884.428	4600.53
884.728	4528.23
885.028	4483.58
885.328	4472.47
885.629	4455.57
885.929	4497.86
886.228	4495.99
886.528	4432.91
886.828	4357.33
887.128	4300.26
887.427	4237.85
887.727	4228.3
888.027	4221.66
888.326	4253.09
888.625	4269.76
888.925	4224.21
889.224	4213.25
889.523	4173.18
889.822	4134.64
890.121	4106.17
890.42	4088.76
890.719	4107
891.018	4103.05
891.317	4129.97
891.616	4120.09
891.914	4074.3
892.213	4043.51
892.512	4017.49
892.81	4005.77
893.108	3997.82
893.407	4027.69
893.705	4066.86
894.003	4073.57
894.301	4038.58
894.599	3983.52
894.897	3950.8
895.195	3905.82
895.493	3856.23
895.791	3867.14
896.089	3895.2
896.386	3908.32
896.684	3946.24
896.981	3933.98
897.279	3908.86
897.576	3909.07
897.874	3853.74
898.171	3886.48
898.468	3920.81
898.765	3938.25
899.062	3981.92
899.359	3980.3
899.656	3958.09
899.953	3919.52
900.25	3885.96
900.547	3836.83
900.843	3804.12
901.14	3823.38
901.436	3857.54
901.733	3889.93
902.029	3894.75
902.325	3875.43
902.622	3798.25
902.918	3770.15
903.214	3756.4
903.51	3737.08
903.806	3761.18
904.102	3772.98
904.398	3787.09
904.694	3765.06
904.989	3764.12
905.285	3695.84
905.581	3642.76
905.876	3642.27
906.171	3638.44
906.467	3657.75
906.762	3674.83
907.057	3659.63
907.353	3658.24
907.648	3618.38
907.943	3582.89
908.238	3538.57
908.533	3488.42
908.827	3468.3
909.122	3470.04
909.417	3486.17
909.711	3524.98
910.006	3522.9
910.301	3503.45
910.595	3495.87
910.889	3491.57
911.184	3432.75
911.478	3422.48
911.772	3427.36
912.066	3424.09
912.36	3418
912.654	3403.07
912.948	3379.74
913.242	3362.86
913.536	3299.98
913.829	3257.13
914.123	3240.31
914.416	3226.27
914.71	3253.05
915.003	3285.31
915.297	3285.54
915.59	3266.88
915.883	3242.95
916.176	3210.01
916.469	3167.87
916.762	3153.64
917.055	3143.14
917.348	3136.27
917.641	3157.08
917.934	3157.43
918.226	3155.94
918.519	3142.67
918.811	3125.81
919.104	3085.03
919.396	3036.22
919.689	2990.13
919.981	2960.27
920.273	2952.67
920.565	2959.4
920.857	2951.45
921.149	2956.53
921.441	2938.97
921.733	2905.62
922.025	2854.5
922.316	2815.18
922.608	2786.16
922.9	2750.97
923.191	2732.4
923.483	2749.92
923.774	2737.85
924.065	2740.77
924.357	2720.28
924.648	2671.23
924.939	2634.45
925.23	2591.53
925.521	2568.1
925.812	2554.6
926.102	2552.55
926.393	2558.43
926.684	2564.3
926.975	2555.47
927.265	2536.12
927.556	2516.44
927.846	2479.94
928.136	2448.17
928.427	2420.36
928.717	2400.71
929.007	2389.88
929.297	2381.59
929.587	2380.91
929.877	2391
930.167	2388.54
930.457	2359.65
930.746	2321.25
931.036	2294.24
931.325	2263.14
931.615	2245.24
931.904	2243.24
932.194	2220.33
932.483	2216.29
932.772	2225.8
933.062	2211.72
933.351	2188.72
933.64	2144.85
933.929	2127.51
934.218	2094.49
934.506	2084.68
934.795	2078.79
935.084	2074.18
935.372	2065.92
935.661	2048.69
935.949	2032.88
936.238	2019.57
936.526	1975.97
936.815	1941.61
937.103	1924.46
937.391	1901.72
937.679	1894.61
937.967	1888.57
938.255	1886.39
938.543	1886.83
938.831	1872.91
939.118	1865.72
939.406	1839.9
939.693	1803.52
939.981	1765.88
940.268	1749.23
940.556	1726.01
940.843	1736.35
941.13	1745.96
941.418	1754.04
941.705	1742.43
941.992	1721.22
942.279	1691.01
942.566	1665
942.852	1635.95
943.139	1612.22
943.426	1594.7
943.712	1580.63
943.999	1570.46
944.285	1566.81
944.572	1555.64
944.858	1551.55
945.144	1550.75
945.431	1531.35
945.717	1514.21
946.003	1501.71
946.289	1483.46
946.575	1464.07
946.861	1452.06
947.146	1442.27
947.432	1435.68
947.718	1428.43
948.003	1422.06
948.289	1411.62
948.574	1384.49
948.86	1363.03
949.145	1351.33
949.43	1338.84
949.715	1335.11
950	1333.27
950.285	1330.9
950.57	1330.23
950.855	1320.18
951.14	1304.66
951.425	1288.02
951.709	1266.51
951.994	1242.38
952.278	1230.84
952.563	1218.94
952.847	1209.24
953.132	1212.77
953.416	1217.34
953.7	1213.19
953.984	1205.68
954.268	1192.01
954.552	1178.74
954.836	1162.51
955.12	1151.14
955.404	1143.08
955.687	1134.12
955.971	1128.6
956.254	1121.57
956.538	1116.48
956.821	1110.54
957.105	1107.3
957.388	1098.09
957.671	1081.66
957.954	1069.07
958.237	1054.45
958.52	1036.19
958.803	1029.87
959.086	1022.29
959.369	1013.6
959.652	1005.02
959.934	994.8
960.217	985.51
960.499	977.19
960.782	964.84
961.064	954.82
961.346	945.9
961.629	934.13
961.911	923.25
962.193	919.94
962.475	919.33
962.757	913.29
963.039	910.09
963.32	908.64
963.602	897.83
963.884	890.27
964.165	882.34
964.447	874.05
964.728	862.51
965.01	854.97
965.291	844.05
965.572	835.61
965.853	832.85
966.134	822.08
966.415	821.07
966.696	818.82
966.977	812.12
967.258	807.42
967.539	798
967.819	789.47
968.1	779.16
968.38	770.4
968.661	764.28
968.941	759.02
969.222	755.71
969.502	753.35
969.782	752.46
970.062	747.87
970.342	743.77
970.622	735.31
970.902	731.71
971.182	722.06
971.462	716.14
971.741	715.24
972.021	708.2
972.3	704.16
972.58	699.21
972.859	694.17
973.138	689.82
973.418	685.67
973.697	677.85
973.976	671.49
974.255	655.83
974.534	647.06
974.813	638.18
975.092	634.44
975.37	633.7
975.649	627.87
975.928	625.33
976.206	623.15
976.485	616.95
976.763	616.74
977.041	607.65
977.32	606.82
977.598	601.43
977.876	597
978.154	594.33
978.432	593.31
978.71	586.87
978.988	583.5
979.265	577.76
979.543	578.76
979.821	574.3
980.098	570.56
980.376	565.21
980.653	560.79
980.93	556.7
981.208	550.06
981.485	544.68
981.762	540.8
982.039	538.76
982.316	538.28
982.593	537.08
982.87	535.11
983.146	534.51
983.423	530
983.7	527.85
983.976	521.78
984.253	518.85
984.529	516.51
984.805	511.85
985.082	509.94
985.358	506.02
985.634	501.53
985.91	497.46
986.186	493.32
986.462	492.34
986.738	488.66
987.013	482.52
987.289	481.88
987.565	477.41
987.84	475.08
988.116	470.77
988.391	467.73
988.666	467.39
988.942	465.64
989.217	464.67
989.492	460.86
989.767	458.54
990.042	456.15
990.317	453.41
990.592	451.64
990.866	450.97
991.141	449.09
991.416	447.27
991.69	444.6
991.964	442.55
992.239	438.85
992.513	436.41
992.787	437.8
993.062	433.33
993.336	434.45
993.61	432.23
993.884	430.76
994.158	427.64
994.431	427.91
994.705	428.08
994.979	425.18
995.252	421.91
995.526	419.76
995.799	420.54
996.073	417.49
996.346	415.95
996.619	414.04
996.892	413.96
997.165	413.26
997.438	409.58
997.711	411.15
997.984	406.91
998.257	406.22
998.53	405.5
998.802	404.66
999.075	402.8
999.347	402.91
999.62	400.69
999.892	400.35
1000.165	397.62
1000.437	399.78
1000.709	394.56
1000.981	398.55
1001.253	395.24
1001.525	393.28
1001.797	392.41
1002.068	391.6
1002.34	390.78
1002.612	390.17
1002.883	387.39
1003.155	387.86
1003.426	388.02
1003.698	385.39
1003.969	384.19
1004.24	384.9
1004.511	383.41
1004.782	381.71
1005.053	381.53
1005.324	381.23
1005.595	381.08
1005.866	379.65
1006.136	380.09
1006.407	378.87
1006.678	381.23
1006.948	376.56
1007.218	378.21
1007.489	378.44
1007.759	377.42
1008.029	376.86
1008.299	375.81
1008.569	376.71
1008.839	375.16
1009.109	373.82
1009.379	373.42
1009.649	371.17
1009.918	372.53
1010.188	374.76
1010.458	370.22
1010.727	371.4
1010.996	370.33
1011.266	370.22
1011.535	371.37
1011.804	370.43
1012.073	367.44
1012.342	367.5
1012.611	370.38
1012.88	370.84
1013.149	370.22
1013.417	369.3
1013.686	367.96
1013.955	365.41
1014.223	367.78
1014.492	367.85
1014.76	366.83
1015.028	366.65
1015.296	367.04
1015.565	365.39
1015.833	366.13
1016.101	365.64
1016.368	363.39
1016.636	363.33
1016.904	361.78
1017.172	363.73
1017.439	362.79
1017.707	362.66
1017.974	364.31
1018.242	363.78
1018.509	362.69
1018.776	362.2
1019.044	362.69
1019.311	361.85
1019.578	361.53
1019.845	360.92
1020.112	363.91
1020.378	363.91
1020.645	363.91
