Data from 190612_Ar_26K_dark_FLMS138901_13-24-03-335.txt Node
Date: Wed Jun 12 13:24:03 EDT 2019
User: pSAM
Spectrometer: FLMS13890
Trigger mode: 0
Integration Time (sec): 5.000000E-3
Scans to average: 1000
Electric dark correction enabled: true
Nonlinearity correction enabled: false
Boxcar width: 0
XAxis mode: Wavelengths
Number of Pixels in Spectrum: 2048
>>>>>Begin Spectral Data<<<<<
342.097	-59.28
342.483	-59.28
342.868	-59.28
343.254	-101.49
343.639	-102.93
344.025	-100.53
344.41	-98.98
344.796	-91.82
345.181	-79.77
345.567	-66.63
345.952	-51.68
346.337	-36.98
346.722	-19.2
347.107	-0.13
347.493	18.18
347.878	38.18
348.263	59.53
348.648	78.62
349.033	98.88
349.418	116
349.802	136.34
350.187	154.74
350.572	171.09
350.957	189.9
351.342	206.14
351.726	222.37
352.111	233.26
352.495	246.57
352.88	260.07
353.264	273.27
353.649	281.71
354.033	290.95
354.418	302.59
354.802	309.12
355.186	314.41
355.57	320.49
355.955	327.59
356.339	329.77
356.723	334.51
357.107	337.93
357.491	366.18
357.875	342.33
358.259	342.57
358.643	343.59
359.026	342.54
359.41	343.26
359.794	342.14
360.178	341.64
360.561	341.3
360.945	337.9
361.329	338.97
361.712	336.79
362.096	336.43
362.479	335.35
362.862	335.09
363.246	330.49
363.629	330.71
364.012	328.15
364.396	324.98
364.779	325.65
365.162	324.7
365.545	321.71
365.928	321.49
366.311	318.22
366.694	318.02
367.077	315.66
367.46	317.12
367.843	317.29
368.226	315.45
368.608	316.43
368.991	313.87
369.374	313.26
369.756	311.41
370.139	313.97
370.521	311.56
370.904	312.65
371.286	313.4
371.669	312.5
372.051	314.14
372.433	313.42
372.816	313.76
373.198	312.34
373.58	312.82
373.962	313.88
374.344	315.72
374.726	315.8
375.108	318.04
375.49	317.81
375.872	318.21
376.254	319.34
376.636	317.28
377.018	318.99
377.399	321.51
377.781	320.65
378.163	321.55
378.544	319.86
378.926	322.64
379.307	319.47
379.689	323.17
380.07	321.87
380.452	324.4
380.833	325.4
381.214	323.68
381.596	324.1
381.977	326.92
382.358	326.83
382.739	328.44
383.12	328.73
383.501	326.18
383.882	326.53
384.263	328.56
384.644	327
385.025	328.28
385.406	330.03
385.787	329.58
386.167	330.57
386.548	331.24
386.929	332
387.309	330.24
387.69	333.11
388.07	332.28
388.451	332.74
388.831	334.08
389.211	333.89
389.592	331.13
389.972	334.28
390.352	335.15
390.733	334.19
391.113	333.29
391.493	335.96
391.873	335.23
392.253	335.07
392.633	336.88
393.013	333.83
393.393	336.32
393.772	334.46
394.152	336.33
394.532	335.21
394.912	338.75
395.291	337.27
395.671	337.09
396.05	338.06
396.43	338.28
396.809	339.16
397.189	337.58
397.568	338.45
397.948	339.27
398.327	340.3
398.706	339.6
399.085	341.34
399.465	339.68
399.844	339.67
400.223	342.31
400.602	341.94
400.981	341.76
401.36	343.01
401.739	343.3
402.117	342.47
402.496	344.15
402.875	341.42
403.254	343.01
403.632	341.73
404.011	345.22
404.39	347.52
404.768	345.66
405.147	346.1
405.525	346.41
405.903	346.76
406.282	347.7
406.66	345.8
407.038	345.81
407.417	345.08
407.795	345.94
408.173	346.68
408.551	346.36
408.929	347.44
409.307	348
409.685	346.8
410.063	349.6
410.441	347.82
410.818	348.6
411.196	348.79
411.574	349.1
411.952	348.01
412.329	348.23
412.707	351.26
413.084	351.02
413.462	349.96
413.839	350.94
414.217	350.55
414.594	350.3
414.971	351.72
415.349	351.16
415.726	351.42
416.103	352.3
416.48	353.44
416.857	352.29
417.234	354.79
417.611	355.5
417.988	353.53
418.365	353.78
418.742	354.92
419.119	352.92
419.495	354.87
419.872	355.55
420.249	361.19
420.625	355.37
421.002	355.93
421.379	355.77
421.755	356.15
422.131	356.16
422.508	357.42
422.884	356.79
423.26	355.67
423.637	356.51
424.013	355.95
424.389	357.13
424.765	358.12
425.141	357.73
425.517	355.47
425.893	357.94
426.269	360.26
426.645	358.48
427.021	356.96
427.397	358.84
427.772	357.73
428.148	358.71
428.524	359.72
428.899	359.28
429.275	360.14
429.651	359.51
430.026	358.94
430.401	359.27
430.777	358.83
431.152	359.13
431.527	361.68
431.903	360.23
432.278	361.54
432.653	360.45
433.028	362.23
433.403	363.26
433.778	361.19
434.153	362.01
434.528	361.58
434.903	364.8
435.278	368.15
435.653	370.78
436.027	375.23
436.402	369.14
436.777	366.63
437.151	364.01
437.526	364.56
437.9	363.71
438.275	364.28
438.649	362.56
439.023	361.83
439.398	363.48
439.772	364.96
440.146	363.48
440.52	363.83
440.895	365.34
441.269	365.38
441.643	363.82
442.017	365.99
442.391	365.68
442.765	365.77
443.138	365.48
443.512	365.45
443.886	363.97
444.26	365.81
444.633	365.76
445.007	365.02
445.38	368.01
445.754	367.56
446.127	367.54
446.501	365.98
446.874	366.9
447.248	365.59
447.621	365.99
447.994	366.89
448.367	366.31
448.741	366.75
449.114	366.81
449.487	367.77
449.86	367.35
450.233	367.79
450.606	369.12
450.978	367.93
451.351	368.06
451.724	367.62
452.097	369.04
452.469	368.01
452.842	369.76
453.215	369.62
453.587	368.31
453.96	367.8
454.332	368.85
454.704	368.88
455.077	368.96
455.449	368.56
455.821	367.83
456.194	369.71
456.566	369.28
456.938	369.53
457.31	366.63
457.682	369.89
458.054	368.5
458.426	368.73
458.798	371.56
459.17	368.99
459.541	368.45
459.913	369.79
460.285	370.31
460.656	367.68
461.028	370.92
461.399	370.26
461.771	371.4
462.142	368.99
462.514	369.91
462.885	369.42
463.256	369.33
463.628	371.1
463.999	370.26
464.37	371.82
464.741	370.62
465.112	370.24
465.483	370.56
465.854	372.12
466.225	367.63
466.596	369.64
466.967	371.81
467.338	372.09
467.708	371.23
468.079	371.54
468.45	369.1
468.82	371.58
469.191	370.19
469.561	371.07
469.932	370.7
470.302	372.36
470.673	370.15
471.043	369.81
471.413	371.49
471.783	371.31
472.154	371.14
472.524	371.17
472.894	371.86
473.264	371.45
473.634	371.37
474.004	370.74
474.374	371.65
474.743	369.15
475.113	371.77
475.483	371.82
475.853	371.21
476.222	369.68
476.592	371.01
476.961	372.96
477.331	371.43
477.7	371.29
478.07	372.65
478.439	370.22
478.808	372.69
479.178	372.76
479.547	373.72
479.916	369.26
480.285	371.95
480.654	371.48
481.023	372.94
481.392	373.9
481.761	372.54
482.13	372.44
482.499	372.93
482.867	372.34
483.236	373.69
483.605	372.41
483.973	373.69
484.342	373.2
484.71	378.01
485.079	375.65
485.447	377.06
485.816	376.6
486.184	377.25
486.552	378.3
486.921	379.08
487.289	377.91
487.657	378.73
488.025	377.71
488.393	379.58
488.761	377.65
489.129	378.97
489.497	376.58
489.865	380.23
490.233	377.62
490.6	375.97
490.968	376.88
491.336	377.69
491.703	377.44
492.071	375.56
492.438	375.17
492.806	377.12
493.173	375.35
493.541	376.37
493.908	376.04
494.275	376.24
494.642	376.56
495.01	375.8
495.377	375.75
495.744	372.86
496.111	374.12
496.478	375.88
496.845	375.09
497.211	375.91
497.578	375.93
497.945	374.35
498.312	374.93
498.678	376.28
499.045	374.38
499.412	376.46
499.778	373.15
500.145	372.27
500.511	373.15
500.878	372.28
501.244	372.33
501.61	372.76
501.976	372
502.343	372.88
502.709	373.02
503.075	371.81
503.441	372.54
503.807	373.12
504.173	370.24
504.539	373
504.905	371.51
505.27	372.2
505.636	370.41
506.002	371.23
506.367	372.3
506.733	371.39
507.099	370.73
507.464	373.02
507.829	370.59
508.195	370.88
508.56	373.21
508.926	370.34
509.291	373.42
509.656	372.54
510.021	372.4
510.386	373.98
510.751	373.57
511.116	372.33
511.481	372.75
511.846	373.07
512.211	371.54
512.576	371.74
512.941	371.49
513.305	370.49
513.67	373.39
514.035	370.69
514.399	372.07
514.764	370.55
515.128	371.98
515.493	374.33
515.857	370.5
516.221	373.71
516.585	372.47
516.95	370.36
517.314	370.46
517.678	371.51
518.042	371.76
518.406	372.59
518.77	373.3
519.134	372.31
519.498	372.34
519.862	371.13
520.225	370.32
520.589	371.91
520.953	369.66
521.316	371.3
521.68	371.88
522.043	371.04
522.407	370.38
522.77	370.63
523.134	370.47
523.497	371.55
523.86	370.94
524.223	370.71
524.587	371.92
524.95	371.93
525.313	370.67
525.676	371.56
526.039	371.06
526.402	370.61
526.765	371.51
527.127	371.68
527.49	371.89
527.853	369.64
528.215	371.07
528.578	370.7
528.941	371.65
529.303	370.34
529.666	369.94
530.028	370.7
530.39	370.73
530.753	370.63
531.115	372.28
531.477	372.24
531.839	370.53
532.201	370.15
532.564	370.64
532.926	370.03
533.287	371.95
533.649	370.86
534.011	370.62
534.373	369.71
534.735	370.12
535.097	371.01
535.458	372.62
535.82	370.49
536.181	371.43
536.543	370.73
536.904	372.11
537.266	372.07
537.627	373.32
537.988	373.02
538.35	374.18
538.711	376.25
539.072	377.58
539.433	376.96
539.794	379.75
540.155	382.15
540.516	382.8
540.877	385.85
541.238	391.58
541.599	398.69
541.959	405.85
542.32	415.05
542.681	415.8
543.041	420.14
543.402	422.87
543.762	420.02
544.123	419.22
544.483	418.96
544.844	414.25
545.204	413.95
545.564	419.13
545.924	423.77
546.284	423.16
546.644	410.75
547.004	397.44
547.364	391.27
547.724	384.61
548.084	383.31
548.444	382.1
548.804	384.9
549.164	383.78
549.523	382.8
549.883	382.81
550.242	379.69
550.602	380.18
550.961	380.8
551.321	380.46
551.68	379.49
552.04	378.55
552.399	380.27
552.758	379.14
553.117	375.59
553.476	375.8
553.835	376.55
554.194	374.91
554.553	373.61
554.912	371.65
555.271	369.18
555.63	370.84
555.989	370.93
556.347	369.2
556.706	368.5
557.065	370.26
557.423	369.65
557.782	370.46
558.14	369.7
558.499	370.63
558.857	369.88
559.215	369.37
559.573	368.55
559.932	368.69
560.29	368.43
560.648	368.8
561.006	368.23
561.364	369.06
561.722	368.22
562.08	368.58
562.438	368.23
562.795	368.04
563.153	368.03
563.511	368.9
563.868	370.58
564.226	368.55
564.583	367.93
564.941	368.91
565.298	368.12
565.656	369.35
566.013	368.13
566.37	368.52
566.727	370.7
567.085	368.15
567.442	369.39
567.799	365.77
568.156	367.62
568.513	368.46
568.87	368.74
569.226	368.65
569.583	367.59
569.94	368.97
570.297	367.29
570.653	368.83
571.01	368.33
571.366	367.75
571.723	368.6
572.079	367.52
572.436	367.21
572.792	367.2
573.148	368.71
573.505	368.92
573.861	367.32
574.217	367.95
574.573	366.29
574.929	368.31
575.285	367.96
575.641	366.31
575.997	369.01
576.352	369.28
576.708	371.69
577.064	374.25
577.42	372.42
577.775	369.69
578.131	369.23
578.486	371.09
578.842	372.93
579.197	375.49
579.552	373.99
579.908	373.52
580.263	376.41
580.618	375.3
580.973	374.95
581.328	372.93
581.683	375.03
582.038	374.84
582.393	375.21
582.748	375.89
583.103	375.95
583.458	376.99
583.812	379.06
584.167	376.35
584.522	379.67
584.876	377.06
585.231	375.32
585.585	377.01
585.939	373.99
586.294	376.56
586.648	376.71
587.002	377.93
587.356	380.38
587.711	381.01
588.065	381.58
588.419	379.52
588.773	375.93
589.127	375.58
589.48	374.34
589.834	372.74
590.188	373.75
590.542	372.99
590.895	371.8
591.249	372.59
591.603	371.97
591.956	373.64
592.309	374.44
592.663	374.34
593.016	373.67
593.369	374.12
593.723	374.19
594.076	371.56
594.429	372.82
594.782	369.43
595.135	367.68
595.488	369.77
595.841	368.89
596.194	366.95
596.547	368.33
596.899	367.82
597.252	366.64
597.605	370.64
597.957	368.02
598.31	368.73
598.662	368.45
599.015	369.96
599.367	370.15
599.719	369.89
600.072	371.15
600.424	370.89
600.776	368.29
601.128	368.36
601.48	366.52
601.832	366.09
602.184	365.39
602.536	365.45
602.888	366
603.24	366.55
603.592	365.92
603.943	365.91
604.295	365.76
604.646	366.17
604.998	365.78
605.349	366.95
605.701	365.52
606.052	363.82
606.404	365.29
606.755	367.26
607.106	367.56
607.457	367.86
607.808	367.49
608.159	367.63
608.51	369.62
608.861	369.48
609.212	371.95
609.563	372.6
609.914	378.74
610.265	385.72
610.615	400.24
610.966	418.27
611.316	433.56
611.667	436.2
612.017	428.16
612.368	418.99
612.718	406.76
613.068	396.91
613.419	393.75
613.769	388.78
614.119	386.76
614.469	384.84
614.819	382.61
615.169	381.77
615.519	377.56
615.869	378.24
616.219	375.49
616.568	374.94
616.918	373.48
617.268	370.2
617.617	373.31
617.967	369.49
618.316	371.41
618.666	370.38
619.015	371.48
619.364	372.86
619.714	372.69
620.063	371.65
620.412	370.08
620.761	373.53
621.11	371.81
621.459	371.87
621.808	373.16
622.157	370
622.506	370.32
622.855	370.6
623.203	370.8
623.552	368.2
623.901	369.1
624.249	370.39
624.598	370.11
624.946	370.53
625.295	369.86
625.643	369.23
625.991	369.06
626.34	368.32
626.688	366.95
627.036	365.86
627.384	367.9
627.732	366.77
628.08	367.39
628.428	368.75
628.776	367.58
629.124	367.57
629.471	366.91
629.819	367.69
630.167	367.46
630.514	369.18
630.862	371.53
631.209	372.04
631.557	372.13
631.904	370.48
632.251	369.61
632.599	367.51
632.946	365.69
633.293	363.4
633.64	365.1
633.987	364.52
634.334	363.56
634.681	364.87
635.028	365.53
635.375	364.65
635.722	363.66
636.068	366.36
636.415	363.51
636.762	365.38
637.108	364.02
637.455	362.82
637.801	362.68
638.147	363.5
638.494	364.15
638.84	362.58
639.186	364.05
639.532	364.04
639.878	363.77
640.225	360.76
640.571	362.8
640.916	362.43
641.262	364.28
641.608	362.97
641.954	363.29
642.3	362.21
642.645	361.99
642.991	362.64
643.337	361.88
643.682	363.37
644.028	365.84
644.373	363.4
644.718	363.73
645.064	363.53
645.409	365.06
645.754	364.23
646.099	363.57
646.444	363.89
646.789	360.83
647.134	361.83
647.479	363.64
647.824	362.77
648.169	363.06
648.513	362.86
648.858	364.14
649.203	364.25
649.547	363.92
649.892	364.56
650.236	364.09
650.581	365.43
650.925	364.08
651.269	363.57
651.613	364.5
651.958	364.38
652.302	363.54
652.646	362.91
652.99	364.95
653.334	363.63
653.678	362
654.022	363.26
654.365	363.64
654.709	362.76
655.053	363.18
655.396	361.02
655.74	362.85
656.083	362.24
656.427	359.8
656.77	363.03
657.114	362.73
657.457	362.19
657.8	362.92
658.143	362.32
658.486	363.66
658.83	363.71
659.173	362.36
659.516	360.93
659.858	361.08
660.201	361.88
660.544	362.72
660.887	361.94
661.229	362.82
661.572	361.68
661.915	362.79
662.257	363.34
662.6	361.7
662.942	364.41
663.284	362.93
663.627	362.72
663.969	362.77
664.311	361.56
664.653	361.16
664.995	363.52
665.337	361.73
665.679	362.31
666.021	362.22
666.363	363.77
666.705	362.08
667.046	360.51
667.388	361.8
667.73	362.58
668.071	359.97
668.413	362.79
668.754	362.23
669.096	362.03
669.437	361.87
669.778	359.99
670.119	362.08
670.461	362.55
670.802	360.17
671.143	360.78
671.484	360.49
671.825	362.71
672.165	360.34
672.506	362.18
672.847	361.52
673.188	361.68
673.528	362.71
673.869	360.94
674.21	361.39
674.55	362.98
674.89	361.62
675.231	362.46
675.571	360.83
675.911	357.45
676.252	361.48
676.592	360.31
676.932	361.31
677.272	361.92
677.612	361.64
677.952	360.49
678.292	359.93
678.631	359.62
678.971	361.87
679.311	360.99
679.651	362.86
679.99	360.16
680.33	361.52
680.669	360.66
681.009	362.37
681.348	360.59
681.687	360.9
682.026	362.96
682.366	361.48
682.705	361.39
683.044	361.52
683.383	361.97
683.722	358.92
684.061	360.78
684.4	361.36
684.738	360.5
685.077	361.68
685.416	361.28
685.754	360.59
686.093	360.43
686.431	361.95
686.77	361.08
687.108	360.38
687.447	360.71
687.785	362.02
688.123	360.3
688.461	361.45
688.799	360.02
689.137	361.71
689.475	359.9
689.813	359.93
690.151	360.82
690.489	359.28
690.827	358.7
691.164	360.95
691.502	358.96
691.84	360.15
692.177	361.8
692.515	360.92
692.852	360.51
693.189	359.75
693.527	360.67
693.864	361.89
694.201	361.35
694.538	359.69
694.875	360.87
695.212	359.48
695.549	360.22
695.886	359.83
696.223	361.1
696.56	361.55
696.897	358.65
697.233	361.81
697.57	360.65
697.906	359.92
698.243	362.42
698.579	361.49
698.916	360.15
699.252	358.61
699.588	357.02
699.924	361.58
700.261	359.61
700.597	360.39
700.933	361.18
701.269	358.72
701.605	360.53
701.941	359.16
702.276	359.94
702.612	358.47
702.948	361.57
703.283	359.14
703.619	361.02
703.954	358.84
704.29	361.03
704.625	360.02
704.961	361.01
705.296	360.34
705.631	358.68
705.966	362.06
706.301	362.3
706.637	360.15
706.972	360.63
707.306	360.76
707.641	361.79
707.976	361.51
708.311	363.98
708.646	362.43
708.98	361.54
709.315	361.7
709.649	362.8
709.984	362.56
710.318	360.29
710.653	360.3
710.987	359.08
711.321	358.8
711.655	360.86
711.989	361.45
712.324	361.67
712.658	361.52
712.992	360.19
713.325	361.49
713.659	362.02
713.993	360.28
714.327	360.68
714.66	358.19
714.994	357.7
715.328	358.29
715.661	359.24
715.994	360.81
716.328	359.91
716.661	360.29
716.994	359.51
717.328	358.98
717.661	358.33
717.994	357.37
718.327	360.58
718.66	361.2
718.993	358.94
719.325	358.56
719.658	358.29
719.991	360.36
720.324	359.1
720.656	357.69
720.989	359.38
721.321	357.75
721.654	357.43
721.986	359.31
722.318	359.8
722.651	359.82
722.983	357.07
723.315	359.59
723.647	358.82
723.979	358.37
724.311	359.98
724.643	357.22
724.975	357.85
725.307	358.9
725.638	357.67
725.97	358.96
726.302	357.97
726.633	358.77
726.965	358.47
727.296	358.34
727.628	359.95
727.959	359.32
728.29	357.74
728.621	357.76
728.952	357.83
729.284	356.32
729.615	358.08
729.945	359.09
730.276	359.59
730.607	357.06
730.938	358.28
731.269	357.65
731.599	357.5
731.93	358.53
732.261	358.61
732.591	357.49
732.922	358.65
733.252	358.43
733.582	360.2
733.912	358.61
734.243	357.98
734.573	359.48
734.903	357.42
735.233	358.59
735.563	358.75
735.893	358.55
736.223	357.77
736.552	358.13
736.882	358.27
737.212	357.78
737.541	358.5
737.871	357.14
738.2	359.86
738.53	355.99
738.859	356.55
739.188	359.65
739.518	357.9
739.847	357.38
740.176	358.49
740.505	357.95
740.834	357.79
741.163	358.33
741.492	357.23
741.821	358.73
742.15	357.76
742.478	358.12
742.807	359.66
743.136	357.38
743.464	358.18
743.793	359.06
744.121	357.37
744.449	359.13
744.778	357.25
745.106	357.36
745.434	356.87
745.762	358.76
746.09	356.88
746.418	357.45
746.746	359.89
747.074	358.22
747.402	357.9
747.73	357.93
748.057	355.98
748.385	356.94
748.712	357.91
749.04	355.44
749.367	356.91
749.695	357.65
750.022	357.7
750.349	358.07
750.677	356.39
751.004	362.09
751.331	358.77
751.658	357.61
751.985	356.78
752.312	358.66
752.639	358.42
752.966	356.56
753.292	356.9
753.619	356.99
753.946	358.14
754.272	356.97
754.599	354.99
754.925	356.15
755.251	358.04
755.578	358.71
755.904	358.33
756.23	356.54
756.556	356.85
756.882	359.86
757.208	357.07
757.534	357.93
757.86	356.85
758.186	356.82
758.512	357.09
758.838	357.96
759.163	356.94
759.489	358.43
759.814	358.35
760.14	357.33
760.465	359.54
760.791	358
761.116	359
761.441	358.82
761.766	355.34
762.092	358.9
762.417	356.51
762.742	357.29
763.066	357.2
763.391	357.99
763.716	355.19
764.041	358.52
764.366	358
764.69	358.36
765.015	357.79
765.339	356.82
765.664	356.78
765.988	355.7
766.312	356.17
766.637	356.79
766.961	355.56
767.285	356.14
767.609	357.74
767.933	358.22
768.257	356.81
768.581	357.44
768.905	357.47
769.229	356.95
769.552	356.68
769.876	357.47
770.2	358.66
770.523	358.75
770.847	355.89
771.17	356.32
771.493	358.81
771.817	355.85
772.14	356.13
772.463	357.3
772.786	358.31
773.109	356.17
773.432	357.77
773.755	357.57
774.078	355.54
774.401	358.92
774.724	356.51
775.046	355.09
775.369	356.26
775.692	356.26
776.014	357.13
776.336	355.84
776.659	357.23
776.981	357.12
777.303	358.33
777.626	356.83
777.948	356.37
778.27	356.56
778.592	356.15
778.914	356.16
779.236	357.32
779.557	357.97
779.879	356.89
780.201	355.18
780.523	356.65
780.844	358.32
781.166	356.77
781.487	356.07
781.809	356.87
782.13	356.35
782.451	356.8
782.772	355.91
783.094	356.65
783.415	355.78
783.736	355.31
784.057	355.58
784.378	357.29
784.698	356.96
785.019	356.65
785.34	357.53
785.661	358.18
785.981	357.17
786.302	357.8
786.622	355.81
786.943	355.46
787.263	356.96
787.583	356.31
787.903	354.48
788.224	355.42
788.544	355.24
788.864	356.86
789.184	357.07
789.504	355.37
789.824	355.93
790.143	356.26
790.463	354.75
790.783	356.78
791.102	353.91
791.422	354.29
791.741	353.71
792.061	356.53
792.38	356.56
792.699	356.99
793.019	356.42
793.338	355.69
793.657	355.26
793.976	355.02
794.295	355.19
794.614	356.21
794.933	355.53
795.252	354.12
795.57	355.27
795.889	355.64
796.208	356.57
796.526	355.54
796.845	356.65
797.163	355.17
797.482	355.33
797.8	356.68
798.118	356.37
798.436	356.77
798.754	356.25
799.073	355.08
799.391	357.22
799.708	356.6
800.026	354.27
800.344	355.16
800.662	353.82
800.98	356.21
801.297	354.36
801.615	356.76
801.932	355.43
802.25	354.16
802.567	355.48
802.884	356.64
803.202	357.09
803.519	354.57
803.836	355.44
804.153	356.05
804.47	355.1
804.787	356.33
805.104	356.63
805.421	354.61
805.737	357.03
806.054	354.83
806.371	355.95
806.687	355.69
807.004	353.96
807.32	353.15
807.637	357.04
807.953	356.52
808.269	355.92
808.585	354.38
808.902	355.84
809.218	354.23
809.534	355.24
809.85	353.15
810.165	354.68
810.481	355.44
810.797	355.87
811.113	356.2
811.428	354.77
811.744	357.43
812.059	355.09
812.375	355.37
812.69	355
813.006	355.82
813.321	354.44
813.636	354.14
813.951	356.6
814.266	356.35
814.581	353.19
814.896	355.99
815.211	354.78
815.526	355.72
815.841	355.66
816.155	355.9
816.47	353.21
816.784	353.8
817.099	354.06
817.413	354.95
817.728	354.21
818.042	355.01
818.356	353.78
818.67	354.7
818.985	355.79
819.299	355.69
819.613	354.98
819.926	353.15
820.24	353.96
820.554	354.61
820.868	354.79
821.182	355.7
821.495	354.56
821.809	353.96
822.122	354.4
822.436	354.62
822.749	356.2
823.062	354.3
823.376	354.54
823.689	354.81
824.002	354.79
824.315	354.87
824.628	356.42
824.941	352.27
825.254	353.51
825.566	355.73
825.879	355.24
826.192	354.22
826.504	355.67
826.817	354.92
827.129	353.74
827.442	354.79
827.754	354
828.066	355.82
828.379	354.08
828.691	353.38
829.003	356.33
829.315	353.62
829.627	354.16
829.939	354.51
830.251	355.13
830.562	355
830.874	353.36
831.186	354.62
831.497	355.3
831.809	353.71
832.12	354.72
832.432	356.37
832.743	353.72
833.054	354.91
833.365	354.65
833.676	354.32
833.988	353.56
834.299	354.77
834.61	355.53
834.92	355.28
835.231	354.38
835.542	354.49
835.853	353.09
836.163	355.47
836.474	354.69
836.784	354.03
837.095	354.84
837.405	355.04
837.715	355.13
838.026	355.83
838.336	354.57
838.646	354.79
838.956	353.71
839.266	352.82
839.576	352.28
839.886	353.23
840.195	352.08
840.505	353.63
840.815	353.83
841.124	354.3
841.434	351.9
841.743	352.51
842.053	356.39
842.362	355.76
842.671	354.32
842.981	354.05
843.29	352.27
843.599	352.82
843.908	354.55
844.217	354.21
844.526	352.72
844.835	355.73
845.143	354.84
845.452	355.05
845.761	353.67
846.069	351.33
846.378	353.91
846.686	352.88
846.995	355.36
847.303	350.72
847.611	354.47
847.919	357.24
848.227	353.73
848.535	355.23
848.843	353.49
849.151	352.94
849.459	353.67
849.767	355.95
850.075	352.84
850.382	353.65
850.69	352.09
850.998	355.39
851.305	352.37
851.612	354.28
851.92	354.5
852.227	353.91
852.534	354.66
852.841	354.41
853.148	353.98
853.455	354.51
853.762	352.73
854.069	352.82
854.376	352.76
854.683	356.43
854.99	355.12
855.296	353.09
855.603	354.78
855.909	354.78
856.216	353.64
856.522	352.75
856.828	353.68
857.135	352.03
857.441	352.05
857.747	351.94
858.053	353.21
858.359	353.56
858.665	353.67
858.971	353.67
859.276	351.02
859.582	351.03
859.888	353.68
860.193	353.78
860.499	352.35
860.804	353.45
861.11	351.14
861.415	354.64
861.72	352.94
862.026	354.1
862.331	353.06
862.636	352.72
862.941	353.16
863.246	354.34
863.551	353.68
863.855	353.36
864.16	354.19
864.465	354.07
864.769	351.8
865.074	352.68
865.378	352.72
865.683	352.94
865.987	352.05
866.291	352.16
866.596	351.01
866.9	352.59
867.204	352.7
867.508	351.29
867.812	352.42
868.116	351.92
868.42	354.43
868.723	352.16
869.027	351.53
869.331	353.93
869.634	352.25
869.938	352.69
870.241	352.02
870.544	354.68
870.848	352.68
871.151	352.94
871.454	352.4
871.757	355.06
872.06	350.41
872.363	352.41
872.666	351.02
872.969	353.08
873.272	352.25
873.574	353.37
873.877	352.24
874.18	351.92
874.482	353.81
874.785	350.6
875.087	351.93
875.389	354
875.692	353.14
875.994	353.41
876.296	352.52
876.598	353.79
876.9	352.29
877.202	352.87
877.504	353.03
877.805	352.77
878.107	354.93
878.409	352.39
878.71	354.02
879.012	352.88
879.313	352.59
879.615	351.99
879.916	351.42
880.217	352.02
880.518	352.09
880.82	352.78
881.121	352.62
881.422	351.36
881.723	355.48
882.023	352.61
882.324	350.1
882.625	351.2
882.926	353
883.226	352.68
883.527	353.24
883.827	352.8
884.128	351.99
884.428	351.82
884.728	351.76
885.028	352.81
885.328	354.72
885.629	352.91
885.929	351.86
886.228	352.34
886.528	352.26
886.828	353.39
887.128	350.64
887.427	351.78
887.727	351.47
888.027	350.7
888.326	352.44
888.625	353.39
888.925	352.25
889.224	352.18
889.523	352.89
889.822	349.96
890.121	352.93
890.42	352.81
890.719	349.87
891.018	353.98
891.317	351.96
891.616	353.61
891.914	350.5
892.213	351.98
892.512	352.4
892.81	351.38
893.108	351.44
893.407	351.58
893.705	350.18
894.003	352.82
894.301	351.91
894.599	351.57
894.897	350.62
895.195	351.86
895.493	352.23
895.791	352.25
896.089	350.84
896.386	350.79
896.684	351.38
896.981	353.03
897.279	353.2
897.576	352.43
897.874	352.38
898.171	351.34
898.468	352.55
898.765	353.76
899.062	351.61
899.359	350.29
899.656	351.09
899.953	350.03
900.25	351.46
900.547	351.8
900.843	350.95
901.14	352.71
901.436	350.9
901.733	351.28
902.029	351.53
902.325	349.45
902.622	351.34
902.918	351.94
903.214	352.31
903.51	350.35
903.806	352.55
904.102	350.74
904.398	352.59
904.694	349.77
904.989	350.04
905.285	350.31
905.581	350.33
905.876	351.2
906.171	352.67
906.467	351.07
906.762	350.57
907.057	351.28
907.353	351
907.648	350.16
907.943	352.28
908.238	352.24
908.533	351.51
908.827	351.82
909.122	351.39
909.417	352.76
909.711	351.71
910.006	351.24
910.301	352.12
910.595	349.21
910.889	353.45
911.184	352.12
911.478	352.14
911.772	351.03
912.066	351.59
912.36	352.09
912.654	351.19
912.948	350.92
913.242	350.52
913.536	348.57
913.829	349.36
914.123	352.96
914.416	350.48
914.71	351.65
915.003	349.85
915.297	351.27
915.59	349.78
915.883	352.22
916.176	352.84
916.469	351.35
916.762	350.73
917.055	350.02
917.348	350.9
917.641	349.98
917.934	351.19
918.226	350.07
918.519	351.9
918.811	355.02
919.104	352.98
919.396	352.87
919.689	351.29
919.981	351.29
920.273	351.61
920.565	351.19
920.857	351.68
921.149	351.38
921.441	349.81
921.733	350.64
922.025	351.07
922.316	351.14
922.608	351.55
922.9	349.9
923.191	350.27
923.483	349.38
923.774	350.9
924.065	349.91
924.357	353.36
924.648	348.73
924.939	351.54
925.23	350.29
925.521	349.69
925.812	352.63
926.102	350.95
926.393	350.89
926.684	351.16
926.975	350.81
927.265	349.7
927.556	350.78
927.846	349.51
928.136	350.05
928.427	350.25
928.717	350.75
929.007	351.11
929.297	350.15
929.587	349.84
929.877	350.92
930.167	351.55
930.457	351.31
930.746	349.87
931.036	349.86
931.325	351.6
931.615	350.05
931.904	348.83
932.194	351.46
932.483	348.78
932.772	350.53
933.062	350.22
933.351	350.42
933.64	350.87
933.929	350.22
934.218	350.25
934.506	351.74
934.795	350.57
935.084	350.16
935.372	351.8
935.661	349.22
935.949	350.24
936.238	349.81
936.526	348.45
936.815	348.98
937.103	350.56
937.391	348.65
937.679	352.61
937.967	349.93
938.255	349.04
938.543	350.62
938.831	349.22
939.118	350.49
939.406	349.23
939.693	348.93
939.981	351.47
940.268	351.24
940.556	349.86
940.843	351.24
941.13	350.35
941.418	350.06
941.705	350.18
941.992	349.73
942.279	349.22
942.566	349.58
942.852	349.62
943.139	349.5
943.426	350.55
943.712	350.65
943.999	349.99
944.285	349.24
944.572	350.2
944.858	351.19
945.144	349.77
945.431	351.64
945.717	349.25
946.003	348.83
946.289	348.65
946.575	350.93
946.861	350.37
947.146	350.22
947.432	351.74
947.718	348.87
948.003	350.86
948.289	351.9
948.574	349.97
948.86	348.15
949.145	350.16
949.43	351.84
949.715	349
950	349.55
950.285	349.93
950.57	350.64
950.855	351.53
951.14	350.12
951.425	350.25
951.709	350.18
951.994	349.54
952.278	350.38
952.563	349.94
952.847	348.12
953.132	348.39
953.416	351.79
953.7	349.25
953.984	350.92
954.268	347.66
954.552	349.75
954.836	349.58
955.12	349.83
955.404	351.61
955.687	350.77
955.971	350.09
956.254	349.88
956.538	350.45
956.821	350.28
957.105	348.55
957.388	350.71
957.671	348.41
957.954	349.48
958.237	349.02
958.52	350.24
958.803	350.16
959.086	348.73
959.369	348.67
959.652	350.26
959.934	347.85
960.217	350.04
960.499	350.54
960.782	348.91
961.064	348.39
961.346	349.77
961.629	349.58
961.911	350.7
962.193	349.7
962.475	349.91
962.757	349.93
963.039	350.44
963.32	347.29
963.602	349.11
963.884	349.41
964.165	349.1
964.447	348.83
964.728	348.5
965.01	350.53
965.291	347.32
965.572	349.81
965.853	348.84
966.134	347.69
966.415	351.46
966.696	349.62
966.977	348.91
967.258	348.92
967.539	349.61
967.819	349.58
968.1	349.18
968.38	349.61
968.661	349.2
968.941	348.49
969.222	349.89
969.502	348.48
969.782	348.68
970.062	351.21
970.342	349.38
970.622	348.68
970.902	349.43
971.182	349.88
971.462	350.41
971.741	350.52
972.021	348.98
972.3	348.85
972.58	350.11
972.859	349.62
973.138	348.4
973.418	349.23
973.697	348.99
973.976	349.22
974.255	350.21
974.534	349.71
974.813	347.66
975.092	349.2
975.37	349.59
975.649	350.3
975.928	348.81
976.206	349.47
976.485	349.16
976.763	348.9
977.041	349.94
977.32	349.46
977.598	348.5
977.876	349.82
978.154	347.8
978.432	349.06
978.71	346.84
978.988	346.81
979.265	349.34
979.543	346.94
979.821	348.83
980.098	349.56
980.376	346.71
980.653	348.67
980.93	347.25
981.208	350.13
981.485	349.09
981.762	349.83
982.039	348.89
982.316	349.36
982.593	349.21
982.87	348.57
983.146	348.2
983.423	349.08
983.7	348
983.976	349.32
984.253	349.68
984.529	347.56
984.805	348.86
985.082	347.67
985.358	351.51
985.634	347.3
985.91	349.27
986.186	348.82
986.462	350.77
986.738	348.34
987.013	348.6
987.289	349.39
987.565	345.76
987.84	347.66
988.116	348.77
988.391	347.75
988.666	347.28
988.942	346.88
989.217	348.05
989.492	348.66
989.767	347.83
990.042	349.21
990.317	347.32
990.592	348.37
990.866	348.2
991.141	347.75
991.416	347.92
991.69	348.75
991.964	349.6
992.239	348.49
992.513	349.01
992.787	348.52
993.062	348.83
993.336	347.62
993.61	346.41
993.884	346.71
994.158	347.67
994.431	347.69
994.705	348.89
994.979	348.59
995.252	348.22
995.526	348.42
995.799	346.76
996.073	348.66
996.346	349.41
996.619	350.05
996.892	348.26
997.165	347.13
997.438	347.69
997.711	349.09
997.984	347.23
998.257	346.56
998.53	348.15
998.802	350.03
999.075	347.92
999.347	346.5
999.62	347.75
999.892	347.52
1000.165	347.63
1000.437	349.62
1000.709	347.65
1000.981	347.46
1001.253	348.67
1001.525	347.87
1001.797	348.17
1002.068	348.12
1002.34	349.98
1002.612	348.52
1002.883	348.5
1003.155	348.54
1003.426	347.52
1003.698	347.98
1003.969	348.22
1004.24	347.74
1004.511	349.1
1004.782	347.07
1005.053	346.86
1005.324	345.12
1005.595	346.14
1005.866	346.04
1006.136	347.22
1006.407	348.53
1006.678	348.63
1006.948	347.97
1007.218	348.46
1007.489	346.59
1007.759	348.13
1008.029	349.43
1008.299	345.88
1008.569	348.39
1008.839	347.79
1009.109	346.38
1009.379	347.67
1009.649	349.04
1009.918	348.1
1010.188	348.08
1010.458	346.46
1010.727	349.32
1010.996	346.64
1011.266	346.99
1011.535	346.91
1011.804	347.14
1012.073	348.78
1012.342	347.62
1012.611	347.57
1012.88	347.96
1013.149	348.07
1013.417	348.17
1013.686	346.21
1013.955	346.24
1014.223	348.16
1014.492	348.14
1014.76	346.71
1015.028	346.32
1015.296	348.67
1015.565	347.03
1015.833	346.69
1016.101	347.93
1016.368	347.86
1016.636	346.94
1016.904	345.81
1017.172	346.32
1017.439	348.38
1017.707	346.12
1017.974	346.24
1018.242	347.81
1018.509	347.42
1018.776	345.82
1019.044	346.83
1019.311	347.21
1019.578	347.27
1019.845	347.88
1020.112	347.44
1020.378	347.44
1020.645	347.44
