Data from 190626_Kr_41K_dark_FLMS138901_17-59-18-455.txt Node
Date: Wed Jun 26 17:59:18 EDT 2019
User: pSAM
Spectrometer: FLMS13890
Trigger mode: 0
Integration Time (sec): 5.000000E-3
Scans to average: 1000
Electric dark correction enabled: true
Nonlinearity correction enabled: false
Boxcar width: 0
XAxis mode: Wavelengths
Number of Pixels in Spectrum: 2048
>>>>>Begin Spectral Data<<<<<
342.097	-57.46
342.483	-57.46
342.868	-57.46
343.254	-98.95
343.639	-102.25
344.025	-101.79
344.41	-96.14
344.796	-89.91
345.181	-81.7
345.567	-68.51
345.952	-51.66
346.337	-37.1
346.722	-19.08
347.107	0.62
347.493	20.27
347.878	38.19
348.263	57.97
348.648	78.06
349.033	97.07
349.418	118.18
349.802	135.53
350.187	156.19
350.572	174.46
350.957	190.21
351.342	209.84
351.726	223.11
352.111	237.28
352.495	249.62
352.88	262.29
353.264	275.06
353.649	285.3
354.033	293.65
354.418	303.43
354.802	312.69
355.186	317.62
355.57	323.28
355.955	330.24
356.339	332.58
356.723	338.03
357.107	339.71
357.491	357.43
357.875	344.1
358.259	344.64
358.643	345.93
359.026	346.17
359.41	345.25
359.794	344.01
360.178	344.77
360.561	342.36
360.945	341.4
361.329	339.62
361.712	338.35
362.096	337.47
362.479	337.32
362.862	333.89
363.246	333.08
363.629	330.36
364.012	329.3
364.396	327.63
364.779	326.87
365.162	324.16
365.545	323.84
365.928	323.69
366.311	323.21
366.694	320.35
367.077	319.74
367.46	318.92
367.843	317.29
368.226	318.24
368.608	316.63
368.991	316.45
369.374	314.88
369.756	316.01
370.139	312.39
370.521	314.53
370.904	315.92
371.286	315.76
371.669	316.45
372.051	314.87
372.433	315.34
372.816	317.74
373.198	316.06
373.58	315.56
373.962	318.75
374.344	317.17
374.726	317.27
375.108	318.19
375.49	319.52
375.872	319.01
376.254	319.24
376.636	319.01
377.018	319.63
377.399	321.83
377.781	322.27
378.163	323.68
378.544	323.33
378.926	324.01
379.307	323.46
379.689	325.82
380.07	324.38
380.452	324.36
380.833	326.47
381.214	324.85
381.596	328.69
381.977	329.56
382.358	327.1
382.739	330.18
383.12	329.39
383.501	329.31
383.882	329.05
384.263	330.05
384.644	330.14
385.025	330.83
385.406	330.06
385.787	333.34
386.167	332.4
386.548	330.21
386.929	333.78
387.309	333.05
387.69	333.41
388.07	333.68
388.451	333.78
388.831	333.76
389.211	334.8
389.592	336.23
389.972	335.75
390.352	333.26
390.733	335.05
391.113	338.43
391.493	333.93
391.873	332.99
392.253	335.86
392.633	338.45
393.013	337.7
393.393	335.54
393.772	337.73
394.152	337.82
394.532	339.1
394.912	339.52
395.291	338.02
395.671	339.69
396.05	338.65
396.43	336.6
396.809	339.03
397.189	339.38
397.568	340.73
397.948	341.41
398.327	341.6
398.706	339.25
399.085	341.28
399.465	341.1
399.844	342.73
400.223	342.77
400.602	344.81
400.981	342.06
401.36	343.68
401.739	343.1
402.117	344.54
402.496	344.81
402.875	344.58
403.254	344.73
403.632	343.38
404.011	345.09
404.39	344.76
404.768	347.55
405.147	345.7
405.525	345.87
405.903	346.04
406.282	347.79
406.66	347.04
407.038	348.2
407.417	346.93
407.795	347.5
408.173	348.25
408.551	348.71
408.929	350.3
409.307	348
409.685	348.56
410.063	347.65
410.441	349.18
410.818	349.36
411.196	349.39
411.574	352.58
411.952	350.39
412.329	350.72
412.707	352.03
413.084	354.06
413.462	351.32
413.839	350.61
414.217	352.34
414.594	353.19
414.971	354.17
415.349	353.53
415.726	354.41
416.103	354.31
416.48	353.47
416.857	352.55
417.234	356
417.611	353.45
417.988	354.73
418.365	353.76
418.742	356.9
419.119	354.93
419.495	357.15
419.872	356.19
420.249	362.74
420.625	356.51
421.002	357.16
421.379	357.47
421.755	355.67
422.131	356.97
422.508	358.4
422.884	355.13
423.26	357.38
423.637	357.49
424.013	359.29
424.389	356.37
424.765	358.64
425.141	358.31
425.517	358.01
425.893	360.28
426.269	358.08
426.645	359.18
427.021	358.27
427.397	357.27
427.772	359.55
428.148	359.63
428.524	361.43
428.899	358.44
429.275	359.29
429.651	362.05
430.026	361.69
430.401	360.17
430.777	361.22
431.152	359.98
431.527	360.07
431.903	363.16
432.278	361.62
432.653	362.14
433.028	362.41
433.403	362.66
433.778	362.25
434.153	362.5
434.528	364.17
434.903	363.94
435.278	367.43
435.653	368.96
436.027	370.44
436.402	369.67
436.777	366.67
437.151	366.87
437.526	364.02
437.9	363.25
438.275	364.52
438.649	366.79
439.023	363.38
439.398	365.34
439.772	365
440.146	364.87
440.52	364.3
440.895	365.6
441.269	364.71
441.643	365.6
442.017	365.78
442.391	367.1
442.765	365.13
443.138	365.71
443.512	365.31
443.886	363.96
444.26	365.66
444.633	364.96
445.007	369
445.38	365.32
445.754	368.46
446.127	366
446.501	365.58
446.874	368.21
447.248	368.14
447.621	367.54
447.994	368.57
448.367	366.65
448.741	368.93
449.114	368
449.487	369.26
449.86	370.04
450.233	367.61
450.606	370.84
450.978	369.05
451.351	372.05
451.724	368.54
452.097	368.78
452.469	367.96
452.842	368.35
453.215	370.45
453.587	368.1
453.96	370.4
454.332	369.73
454.704	370.95
455.077	370.44
455.449	370.75
455.821	370.91
456.194	370.93
456.566	370.55
456.938	370.05
457.31	369.43
457.682	369.36
458.054	371.47
458.426	369.7
458.798	370.11
459.17	370.17
459.541	369.86
459.913	370.99
460.285	370.05
460.656	370.91
461.028	371.28
461.399	369.72
461.771	369.23
462.142	371.46
462.514	372.03
462.885	370.87
463.256	371.55
463.628	370.6
463.999	370.7
464.37	370.86
464.741	371.77
465.112	370.62
465.483	371.37
465.854	372.43
466.225	372.37
466.596	372.24
466.967	372.6
467.338	372.49
467.708	371.12
468.079	370.51
468.45	371.11
468.82	371.01
469.191	371.08
469.561	372.06
469.932	374.23
470.302	372.29
470.673	372.63
471.043	371.73
471.413	373.07
471.783	373.07
472.154	373.16
472.524	372.32
472.894	371.69
473.264	373.08
473.634	371.96
474.004	372.45
474.374	373.1
474.743	371.96
475.113	372.19
475.483	372.44
475.853	373.96
476.222	372.45
476.592	372.62
476.961	372.04
477.331	374.38
477.7	373.41
478.07	372.41
478.439	371.2
478.808	372.3
479.178	373.8
479.547	371.76
479.916	372.51
480.285	372.25
480.654	372.95
481.023	373.12
481.392	373.6
481.761	374.05
482.13	373.24
482.499	374.24
482.867	373.07
483.236	374.32
483.605	376
483.973	374.38
484.342	374.09
484.71	373.37
485.079	375.12
485.447	376.45
485.816	377.08
486.184	378.94
486.552	376.12
486.921	377.31
487.289	377.9
487.657	377.01
488.025	375.84
488.393	377.35
488.761	375.82
489.129	378.02
489.497	376.81
489.865	379.01
490.233	376.25
490.6	374.94
490.968	377.11
491.336	379.21
491.703	377.06
492.071	374.99
492.438	376.45
492.806	377.1
493.173	374.56
493.541	376.24
493.908	375.33
494.275	375.7
494.642	376.85
495.01	375.53
495.377	377.87
495.744	374.43
496.111	374.12
496.478	374.47
496.845	376.4
497.211	377.27
497.578	375.24
497.945	376.72
498.312	375.67
498.678	374.13
499.045	374.96
499.412	373.95
499.778	374.71
500.145	375.96
500.511	372.25
500.878	375.76
501.244	372.62
501.61	374.06
501.976	373.84
502.343	374.12
502.709	373.83
503.075	372.59
503.441	375.64
503.807	373.92
504.173	372.3
504.539	374.49
504.905	373.24
505.27	373.36
505.636	372.96
506.002	372.64
506.367	373.29
506.733	371.75
507.099	373.76
507.464	373.62
507.829	372.65
508.195	371.13
508.56	373.55
508.926	372.62
509.291	372.84
509.656	371.86
510.021	372.02
510.386	374.1
510.751	372.93
511.116	373.2
511.481	374.05
511.846	372.97
512.211	372.62
512.576	372.14
512.941	373.91
513.305	372.11
513.67	373.44
514.035	372.99
514.399	373.26
514.764	374.12
515.128	373.76
515.493	374.85
515.857	372.57
516.221	371.42
516.585	373.56
516.95	371.8
517.314	372.22
517.678	372.45
518.042	372.83
518.406	373.48
518.77	373.01
519.134	373.66
519.498	374.04
519.862	372.17
520.225	371.32
520.589	371.75
520.953	373.23
521.316	372.42
521.68	371.14
522.043	369.79
522.407	372.01
522.77	372.86
523.134	372.41
523.497	373.58
523.86	370.61
524.223	372.7
524.587	373.7
524.95	373.21
525.313	371.34
525.676	371.89
526.039	372.46
526.402	372.17
526.765	370.55
527.127	369.8
527.49	371.21
527.853	369.58
528.215	371.58
528.578	371.89
528.941	374.82
529.303	371.85
529.666	373.21
530.028	372.96
530.39	371.33
530.753	371.19
531.115	371.63
531.477	371.91
531.839	370.62
532.201	372.31
532.564	373.52
532.926	371.77
533.287	372.75
533.649	372.99
534.011	372.2
534.373	370.93
534.735	372.33
535.097	371.7
535.458	372.53
535.82	373.09
536.181	372.87
536.543	373.31
536.904	373.98
537.266	373.25
537.627	371.71
537.988	377.03
538.35	374.82
538.711	374.05
539.072	374.63
539.433	374.94
539.794	378.31
540.155	377.48
540.516	377.17
540.877	381.33
541.238	383.64
541.599	388.22
541.959	390.99
542.32	396.79
542.681	402.44
543.041	402.58
543.402	403.57
543.762	404.32
544.123	403.38
544.483	402.59
544.844	401.74
545.204	399.59
545.564	401.79
545.924	407.06
546.284	406.97
546.644	405.76
547.004	393.42
547.364	387.64
547.724	384.36
548.084	380.18
548.444	378.63
548.804	378.19
549.164	379.77
549.523	380.95
549.883	380.41
550.242	381.12
550.602	376.71
550.961	375.69
551.321	375.9
551.68	378.09
552.04	377.37
552.399	376.62
552.758	377.92
553.117	376.11
553.476	376.39
553.835	374.88
554.194	374.46
554.553	371.6
554.912	371.03
555.271	371.8
555.63	370.88
555.989	371.28
556.347	371.95
556.706	370.38
557.065	372.95
557.423	369.99
557.782	369.48
558.14	371.72
558.499	368.26
558.857	371.43
559.215	368.94
559.573	371.85
559.932	370.73
560.29	370.55
560.648	370.01
561.006	370.15
561.364	371.02
561.722	371.08
562.08	370.49
562.438	371.86
562.795	369.91
563.153	370.48
563.511	371.24
563.868	371
564.226	370.46
564.583	369.22
564.941	370.06
565.298	369.39
565.656	368.53
566.013	369.37
566.37	369.42
566.727	368.95
567.085	369.91
567.442	369.82
567.799	370.12
568.156	368.93
568.513	368.54
568.87	367.93
569.226	367.45
569.583	367.95
569.94	369.06
570.297	370.6
570.653	368.58
571.01	368.95
571.366	368.07
571.723	370.18
572.079	369.39
572.436	368.2
572.792	369.96
573.148	369.4
573.505	369.02
573.861	368.79
574.217	368.07
574.573	369.33
574.929	370.13
575.285	369.04
575.641	366.86
575.997	368.51
576.352	368.61
576.708	370.15
577.064	371.9
577.42	371.67
577.775	370.92
578.131	370.22
578.486	369.02
578.842	370.27
579.197	373.28
579.552	370.9
579.908	374.36
580.263	374.45
580.618	373.31
580.973	374.19
581.328	373.42
581.683	371.42
582.038	373.64
582.393	371.89
582.748	374.38
583.103	375.03
583.458	373.79
583.812	375.72
584.167	375.54
584.522	377.12
584.876	376.57
585.231	373.75
585.585	372.42
585.939	374.03
586.294	373.8
586.648	374.44
587.002	374.31
587.356	375.36
587.711	377.41
588.065	377.18
588.419	377.11
588.773	375.72
589.127	372.87
589.48	372.92
589.834	371.65
590.188	371.83
590.542	372.33
590.895	372.79
591.249	370.14
591.603	369.39
591.956	371.43
592.309	372.3
592.663	371.11
593.016	371.82
593.369	374.19
593.723	370.34
594.076	372.08
594.429	371.99
594.782	368.38
595.135	370.34
595.488	368.92
595.841	369.09
596.194	370.84
596.547	366.27
596.899	367.57
597.252	367.56
597.605	366.22
597.957	368.42
598.31	369.07
598.662	368.56
599.015	370.49
599.367	369.75
599.719	368.32
600.072	368.02
600.424	371.61
600.776	370.42
601.128	369.66
601.48	364.99
601.832	368.28
602.184	366.7
602.536	368.12
602.888	368.46
603.24	367.53
603.592	368.17
603.943	367.29
604.295	367.68
604.646	366.46
604.998	367.6
605.349	368.05
605.701	365.46
606.052	366.34
606.404	367.87
606.755	368.81
607.106	368.39
607.457	368.2
607.808	369.17
608.159	367.44
608.51	369.21
608.861	367.67
609.212	370.76
609.563	369.58
609.914	371.18
610.265	375.4
610.615	381.58
610.966	390.42
611.316	401
611.667	408.54
612.017	406.97
612.368	404.72
612.718	396.14
613.068	387.11
613.419	385.78
613.769	380.92
614.119	381.1
614.469	378.73
614.819	376.94
615.169	376.39
615.519	374.24
615.869	374.85
616.219	371.36
616.568	371.63
616.918	371.14
617.268	371.96
617.617	370.68
617.967	371.32
618.316	370.05
618.666	371.07
619.015	369.64
619.364	369
619.714	370.47
620.063	370.59
620.412	369.72
620.761	371.84
621.11	370.42
621.459	370.33
621.808	370.19
622.157	370.43
622.506	369.58
622.855	369.48
623.203	370.07
623.552	368.79
623.901	368.98
624.249	368.01
624.598	370.2
624.946	367.48
625.295	369.35
625.643	367.61
625.991	369.02
626.34	368.04
626.688	367.73
627.036	366.11
627.384	366.98
627.732	368.7
628.08	366.33
628.428	368.37
628.776	367.38
629.124	366.4
629.471	367.41
629.819	368.54
630.167	366.68
630.514	369.47
630.862	368.85
631.209	368.42
631.557	369.04
631.904	368.55
632.251	370.06
632.599	370.04
632.946	366.01
633.293	367.02
633.64	366
633.987	366.67
634.334	364.45
634.681	364.34
635.028	362.74
635.375	364.42
635.722	363.38
636.068	364.38
636.415	365.33
636.762	364.56
637.108	364.2
637.455	365.77
637.801	365.19
638.147	365.55
638.494	365.82
638.84	363.1
639.186	362.44
639.532	364.78
639.878	366.15
640.225	365.49
640.571	361.71
640.916	363.55
641.262	364.18
641.608	366.47
641.954	365.15
642.3	363.86
642.645	363.74
642.991	364.26
643.337	365.26
643.682	363.83
644.028	365.36
644.373	364.42
644.718	365.58
645.064	364.1
645.409	364.57
645.754	364.92
646.099	363.94
646.444	362.98
646.789	363.05
647.134	364.8
647.479	363.84
647.824	363.37
648.169	364.03
648.513	363.42
648.858	363.59
649.203	363.52
649.547	364.95
649.892	364.68
650.236	364.31
650.581	364.44
650.925	365.98
651.269	364.22
651.613	365.68
651.958	363.83
652.302	364.06
652.646	363.98
652.99	363.88
653.334	362.9
653.678	364.65
654.022	363.69
654.365	363.84
654.709	365.18
655.053	364.09
655.396	364.05
655.74	364.93
656.083	363.22
656.427	362.85
656.77	363.74
657.114	362.7
657.457	361.19
657.8	363.34
658.143	363.65
658.486	361.84
658.83	362.89
659.173	363.9
659.516	363.11
659.858	364.3
660.201	364.49
660.544	363.73
660.887	362.21
661.229	362.85
661.572	364.52
661.915	363.94
662.257	362.54
662.6	362.09
662.942	364.78
663.284	361.82
663.627	364.27
663.969	362.17
664.311	362.64
664.653	365.57
664.995	362.46
665.337	364.11
665.679	362.76
666.021	363.37
666.363	363.85
666.705	362.96
667.046	364.66
667.388	365.53
667.73	360.74
668.071	361.13
668.413	363.45
668.754	362.12
669.096	364.63
669.437	364.93
669.778	363.22
670.119	362.04
670.461	361.77
670.802	361.03
671.143	362.9
671.484	361.61
671.825	362.65
672.165	361.57
672.506	360.66
672.847	361.1
673.188	362.39
673.528	362.51
673.869	362.11
674.21	363.43
674.55	362.25
674.89	360.72
675.231	363.06
675.571	362.52
675.911	363.77
676.252	362.84
676.592	362.2
676.932	362.35
677.272	360.76
677.612	362.67
677.952	362.5
678.292	360.66
678.631	363.91
678.971	362.67
679.311	361.74
679.651	363.62
679.99	363.15
680.33	361.4
680.669	360.8
681.009	361.71
681.348	361.21
681.687	364.01
682.026	363.74
682.366	361.88
682.705	364.56
683.044	363.77
683.383	361.14
683.722	361.24
684.061	361.85
684.4	361.08
684.738	363.51
685.077	361.01
685.416	362.4
685.754	361.71
686.093	361.7
686.431	361.86
686.77	360.43
687.108	361.37
687.447	362.22
687.785	361.58
688.123	361.55
688.461	362.22
688.799	360.16
689.137	361.27
689.475	363.12
689.813	361.96
690.151	361.36
690.489	363.55
690.827	361.23
691.164	361.76
691.502	360.23
691.84	359.88
692.177	360.85
692.515	361.9
692.852	362.99
693.189	361.63
693.527	363.03
693.864	362.13
694.201	361.96
694.538	362.16
694.875	361.43
695.212	362.35
695.549	363.86
695.886	361.28
696.223	361.01
696.56	361.72
696.897	360.85
697.233	360.54
697.57	363.18
697.906	360.84
698.243	362.22
698.579	363.4
698.916	360.03
699.252	360.22
699.588	360.48
699.924	361.18
700.261	361.44
700.597	361.69
700.933	360.95
701.269	360.08
701.605	360.71
701.941	361.8
702.276	360.82
702.612	361.68
702.948	361.3
703.283	361.93
703.619	361.25
703.954	360.44
704.29	358.99
704.625	360.33
704.961	360.36
705.296	360.78
705.631	360.3
705.966	361.63
706.301	362.74
706.637	362.71
706.972	362.09
707.306	360.42
707.641	361.73
707.976	364.38
708.311	361.64
708.646	362.25
708.98	361.52
709.315	362.65
709.649	361.83
709.984	364.33
710.318	360.61
710.653	361.37
710.987	360.3
711.321	360.33
711.655	359.61
711.989	361.26
712.324	361.47
712.658	361.68
712.992	362.25
713.325	362.97
713.659	362.83
713.993	361.64
714.327	360.8
714.66	360.58
714.994	359.75
715.328	360.07
715.661	361.45
715.994	362.25
716.328	360.29
716.661	360.55
716.994	361.89
717.328	360.19
717.661	360.19
717.994	360.47
718.327	359.99
718.66	360.94
718.993	360.98
719.325	359.75
719.658	359.59
719.991	360.21
720.324	359.93
720.656	360.56
720.989	359.06
721.321	359.9
721.654	360.22
721.986	359.28
722.318	359.98
722.651	359.76
722.983	360.34
723.315	360.49
723.647	359.6
723.979	360.66
724.311	360.97
724.643	360.1
724.975	361.31
725.307	359.12
725.638	361.32
725.97	360.06
726.302	361.49
726.633	360.64
726.965	362.3
727.296	359.66
727.628	360.59
727.959	360.52
728.29	361.09
728.621	357.97
728.952	360.9
729.284	359.64
729.615	359.81
729.945	361.85
730.276	360.52
730.607	358.86
730.938	357.77
731.269	361.75
731.599	360.43
731.93	359.92
732.261	359.91
732.591	359.98
732.922	354.93
733.252	359.14
733.582	359.79
733.912	360.66
734.243	359.14
734.573	359.48
734.903	359.8
735.233	359.33
735.563	360.26
735.893	358.7
736.223	358.56
736.552	359.33
736.882	359.57
737.212	358.31
737.541	360.13
737.871	357.35
738.2	359.01
738.53	361.53
738.859	359.5
739.188	361.35
739.518	358.36
739.847	359.96
740.176	358.64
740.505	360.45
740.834	359.78
741.163	359.39
741.492	358.67
741.821	360.94
742.15	360.92
742.478	359.79
742.807	358.75
743.136	360.19
743.464	357.82
743.793	358.01
744.121	360.02
744.449	360.08
744.778	358.33
745.106	359.55
745.434	358.56
745.762	359.7
746.09	360.31
746.418	358.42
746.746	359.68
747.074	360.07
747.402	359.84
747.73	361.33
748.057	359.34
748.385	360.04
748.712	359.48
749.04	360.72
749.367	359.51
749.695	359.72
750.022	358.42
750.349	358.66
750.677	358.89
751.004	362.96
751.331	359.66
751.658	357.8
751.985	359.81
752.312	359.14
752.639	359.43
752.966	358.56
753.292	359.01
753.619	358.14
753.946	358.83
754.272	358.95
754.599	358.33
754.925	358.93
755.251	357.06
755.578	356.96
755.904	359.98
756.23	357.53
756.556	358.29
756.882	356.67
757.208	357.17
757.534	361.45
757.86	357.47
758.186	358.61
758.512	358.22
758.838	360.45
759.163	358.62
759.489	358.07
759.814	358.79
760.14	359.49
760.465	358.75
760.791	359.46
761.116	357.6
761.441	359.96
761.766	359
762.092	359.43
762.417	358.77
762.742	357.91
763.066	360.07
763.391	358.41
763.716	360.79
764.041	359.74
764.366	357.49
764.69	357.86
765.015	359.22
765.339	358.58
765.664	357.12
765.988	359.45
766.312	358.3
766.637	357.94
766.961	358.84
767.285	357.43
767.609	356.11
767.933	358.05
768.257	359.48
768.581	356.97
768.905	358.12
769.229	358.12
769.552	358.61
769.876	359.49
770.2	358.05
770.523	357.3
770.847	357.41
771.17	357.09
771.493	358.35
771.817	358.45
772.14	360.19
772.463	357.78
772.786	358.55
773.109	356.98
773.432	359.52
773.755	356.15
774.078	359.28
774.401	356.19
774.724	357.42
775.046	358.77
775.369	358.1
775.692	357.52
776.014	358.96
776.336	358.69
776.659	358.59
776.981	357.85
777.303	358.93
777.626	359.1
777.948	357.26
778.27	355.75
778.592	357.56
778.914	357.61
779.236	358.28
779.557	359.56
779.879	358.7
780.201	358.28
780.523	357.17
780.844	357.26
781.166	359.37
781.487	358.45
781.809	357.88
782.13	358.55
782.451	357.31
782.772	358.05
783.094	358.7
783.415	357.79
783.736	356.78
784.057	357.65
784.378	356.75
784.698	356.91
785.019	357.08
785.34	356.96
785.661	357.65
785.981	355.73
786.302	358.15
786.622	359.09
786.943	356.52
787.263	357.94
787.583	358.81
787.903	357.36
788.224	356.19
788.544	358.03
788.864	358.34
789.184	358.19
789.504	356.22
789.824	357.61
790.143	360.21
790.463	356.81
790.783	358.69
791.102	357.83
791.422	355.04
791.741	358.03
792.061	357.46
792.38	357.67
792.699	358.35
793.019	357.93
793.338	356.28
793.657	358.05
793.976	358.4
794.295	357.26
794.614	357.72
794.933	358.89
795.252	358.28
795.57	357.79
795.889	356.92
796.208	358.32
796.526	355.93
796.845	357.83
797.163	357.02
797.482	357.8
797.8	358.64
798.118	357.67
798.436	357.79
798.754	357.97
799.073	355.24
799.391	356.9
799.708	357.08
800.026	355.81
800.344	357.74
800.662	357.97
800.98	356.55
801.297	356.6
801.615	358.85
801.932	357.95
802.25	357.3
802.567	354.79
802.884	355.89
803.202	355.99
803.519	356.64
803.836	356.45
804.153	356.48
804.47	355.29
804.787	358.63
805.104	356.05
805.421	357.57
805.737	357.39
806.054	356.99
806.371	355.41
806.687	356.23
807.004	358.49
807.32	358.2
807.637	356.51
807.953	357.14
808.269	357.3
808.585	356.64
808.902	356.49
809.218	357.79
809.534	357.68
809.85	355.07
810.165	356.7
810.481	356.69
810.797	356.09
811.113	355.55
811.428	356.19
811.744	357.55
812.059	355.27
812.375	357.19
812.69	355.86
813.006	357.12
813.321	355.78
813.636	356.25
813.951	355.9
814.266	356.1
814.581	357.21
814.896	357.89
815.211	356.65
815.526	356.83
815.841	355.88
816.155	354.49
816.47	358.63
816.784	357.51
817.099	357.25
817.413	355.32
817.728	355.95
818.042	356.04
818.356	355.83
818.67	356.18
818.985	357.27
819.299	355.99
819.613	356.79
819.926	357.46
820.24	354.68
820.554	358.83
820.868	357.16
821.182	355.76
821.495	355.74
821.809	355.94
822.122	356.25
822.436	355.59
822.749	355.13
823.062	355.62
823.376	354.31
823.689	357.12
824.002	355.43
824.315	355.4
824.628	355.41
824.941	355.03
825.254	355.55
825.566	357.7
825.879	355.63
826.192	357.29
826.504	355.42
826.817	356.56
827.129	356.69
827.442	356.45
827.754	354.63
828.066	357.36
828.379	355.11
828.691	355.98
829.003	355.86
829.315	356.88
829.627	357.07
829.939	357.88
830.251	355.58
830.562	354.93
830.874	355.81
831.186	355.8
831.497	355.61
831.809	353.91
832.12	354.87
832.432	355.6
832.743	358.03
833.054	356.02
833.365	357.1
833.676	355.56
833.988	357.32
834.299	357.03
834.61	356.78
834.92	355.49
835.231	355.1
835.542	355.66
835.853	355.67
836.163	356.97
836.474	356.33
836.784	356.35
837.095	356.08
837.405	355.55
837.715	354.71
838.026	355.57
838.336	354.44
838.646	356.11
838.956	356.35
839.266	354.12
839.576	354.33
839.886	354.36
840.195	356.62
840.505	355.07
840.815	357.8
841.124	355.43
841.434	356.07
841.743	354.91
842.053	356.53
842.362	354.98
842.671	354.5
842.981	355.84
843.29	354.24
843.599	354.02
843.908	354.1
844.217	357.05
844.526	355.54
844.835	356.62
845.143	355.23
845.452	356.58
845.761	355.69
846.069	355.63
846.378	356.95
846.686	355.57
846.995	356.52
847.303	355.48
847.611	354.64
847.919	354.6
848.227	356.82
848.535	355.21
848.843	354.24
849.151	355.42
849.459	355.31
849.767	354.63
850.075	356.3
850.382	355.78
850.69	357.38
850.998	356.38
851.305	355.85
851.612	355.29
851.92	356.5
852.227	354.04
852.534	353.48
852.841	356.06
853.148	356.81
853.455	354.57
853.762	356.37
854.069	354.06
854.376	354.84
854.683	355.02
854.99	355.85
855.296	355.28
855.603	354.03
855.909	355
856.216	354.6
856.522	355.67
856.828	354.3
857.135	354.42
857.441	355.91
857.747	354.44
858.053	356.93
858.359	355.38
858.665	357.06
858.971	355.38
859.276	352.28
859.582	353.51
859.888	356.43
860.193	353.65
860.499	353.04
860.804	352.9
861.11	355.28
861.415	355.24
861.72	353.96
862.026	354.8
862.331	356.01
862.636	354.89
862.941	354.2
863.246	355.71
863.551	356.37
863.855	353.72
864.16	353.3
864.465	355.83
864.769	354.61
865.074	353.8
865.378	355.49
865.683	354.18
865.987	352.25
866.291	354.19
866.596	353.75
866.9	354.43
867.204	354.23
867.508	355.36
867.812	355.52
868.116	354.94
868.42	354.53
868.723	353.7
869.027	355.83
869.331	352.85
869.634	355.31
869.938	356.85
870.241	355.46
870.544	354.53
870.848	354.09
871.151	355.78
871.454	355.35
871.757	354.09
872.06	353.02
872.363	354.73
872.666	354.85
872.969	355
873.272	354.59
873.574	353.19
873.877	354.83
874.18	355.67
874.482	356.22
874.785	353.63
875.087	355.64
875.389	353.18
875.692	352.55
875.994	355.13
876.296	355.74
876.598	352.2
876.9	351.57
877.202	356.17
877.504	353.12
877.805	352.72
878.107	354.49
878.409	355.31
878.71	352.4
879.012	355.61
879.313	353.67
879.615	354.33
879.916	355.69
880.217	354.5
880.518	354.24
880.82	355.55
881.121	354.6
881.422	355.33
881.723	355.67
882.023	355.38
882.324	355.06
882.625	353.85
882.926	354.79
883.226	354.72
883.527	353.29
883.827	352.33
884.128	352.36
884.428	353.33
884.728	355.61
885.028	353.04
885.328	355.03
885.629	353.83
885.929	352.77
886.228	352.77
886.528	355
886.828	352.45
887.128	353.29
887.427	353.93
887.727	353.42
888.027	353.74
888.326	353.01
888.625	353.42
888.925	353.09
889.224	352.46
889.523	352.53
889.822	350.87
890.121	353.2
890.42	353.53
890.719	352.8
891.018	353.19
891.317	355.51
891.616	351.11
891.914	354.07
892.213	353.57
892.512	351.7
892.81	353.28
893.108	352.72
893.407	353.43
893.705	351.68
894.003	352.83
894.301	352.16
894.599	354.54
894.897	352.29
895.195	353.92
895.493	353.29
895.791	353.55
896.089	352.25
896.386	352.13
896.684	354.39
896.981	351.29
897.279	352.51
897.576	354.95
897.874	353.99
898.171	355.8
898.468	352.8
898.765	353.25
899.062	352.97
899.359	353.83
899.656	352.42
899.953	353.1
900.25	352.96
900.547	352.38
900.843	352.5
901.14	354.03
901.436	352.45
901.733	353.82
902.029	352.13
902.325	352.59
902.622	352.76
902.918	351.92
903.214	354.84
903.51	352.32
903.806	351.86
904.102	354.22
904.398	354.09
904.694	352.93
904.989	351.75
905.285	352.66
905.581	352.94
905.876	353.63
906.171	353.43
906.467	353.67
906.762	353.9
907.057	353.48
907.353	353.68
907.648	350.47
907.943	354.07
908.238	352.09
908.533	354.24
908.827	353.13
909.122	353.4
909.417	351.42
909.711	350.43
910.006	354.53
910.301	352.55
910.595	349.45
910.889	352.55
911.184	352.76
911.478	352.56
911.772	352.05
912.066	354.66
912.36	353.63
912.654	351.94
912.948	352.22
913.242	351.55
913.536	352.94
913.829	354.55
914.123	350.96
914.416	352.52
914.71	352.69
915.003	352.68
915.297	352.79
915.59	351.63
915.883	354.73
916.176	352.55
916.469	353.07
916.762	352.8
917.055	353.46
917.348	350.86
917.641	351.97
917.934	351.25
918.226	352.32
918.519	352.6
918.811	354.08
919.104	354.26
919.396	351.8
919.689	350.76
919.981	351.39
920.273	351.3
920.565	353.8
920.857	352.97
921.149	353.17
921.441	350.8
921.733	351.89
922.025	349.84
922.316	350.17
922.608	353.2
922.9	352.18
923.191	352.16
923.483	352.51
923.774	352.31
924.065	351.86
924.357	352.79
924.648	354.38
924.939	353.52
925.23	353.01
925.521	351.03
925.812	349.72
926.102	352.93
926.393	352.45
926.684	353.08
926.975	352.87
927.265	352.09
927.556	351.38
927.846	352.65
928.136	354.06
928.427	353.19
928.717	354.37
929.007	352.42
929.297	354.06
929.587	352.47
929.877	352.02
930.167	353
930.457	352.76
930.746	348.56
931.036	351.55
931.325	351.69
931.615	350.85
931.904	352.15
932.194	353.28
932.483	351.71
932.772	351.15
933.062	351.99
933.351	353.61
933.64	351.94
933.929	351.34
934.218	352.38
934.506	353.46
934.795	350.3
935.084	352.42
935.372	354.18
935.661	352.13
935.949	352.21
936.238	351.25
936.526	349.5
936.815	351.14
937.103	351.28
937.391	352.29
937.679	351.97
937.967	350.87
938.255	350.83
938.543	352.11
938.831	352.07
939.118	350.71
939.406	351.65
939.693	350.18
939.981	352.4
940.268	353.27
940.556	351.9
940.843	350.75
941.13	351.96
941.418	354.38
941.705	351.72
941.992	351.72
942.279	351.31
942.566	352.35
942.852	351.2
943.139	352.6
943.426	349.72
943.712	350.65
943.999	351.3
944.285	351.88
944.572	349.18
944.858	352.06
945.144	352.13
945.431	351.84
945.717	351.62
946.003	352.37
946.289	352.72
946.575	352.52
946.861	350.4
947.146	349.58
947.432	351.52
947.718	350.68
948.003	350.65
948.289	350.8
948.574	350.84
948.86	351.42
949.145	351.25
949.43	354.06
949.715	350.7
950	351.31
950.285	349.99
950.57	353.09
950.855	351.76
951.14	351.47
951.425	350.58
951.709	351.74
951.994	351.18
952.278	352.26
952.563	353.12
952.847	352
953.132	349.91
953.416	350.52
953.7	352.19
953.984	353.23
954.268	353.15
954.552	350.35
954.836	352.99
955.12	352.15
955.404	352.22
955.687	351.39
955.971	350.82
956.254	353.03
956.538	352.87
956.821	352.9
957.105	349.54
957.388	349.8
957.671	350.44
957.954	353.38
958.237	351.55
958.52	352.45
958.803	349.79
959.086	350.03
959.369	351.04
959.652	350.38
959.934	350.61
960.217	352.22
960.499	349.78
960.782	350.05
961.064	350.4
961.346	350.84
961.629	353.2
961.911	352.12
962.193	350.02
962.475	352.41
962.757	350.88
963.039	350.9
963.32	350.88
963.602	349.8
963.884	351.56
964.165	350
964.447	351.14
964.728	349.37
965.01	351.52
965.291	350.8
965.572	350.27
965.853	352.34
966.134	352.37
966.415	350.6
966.696	350.45
966.977	349.29
967.258	351.41
967.539	351.63
967.819	351.47
968.1	351.01
968.38	351.01
968.661	349.18
968.941	350.96
969.222	348.86
969.502	350.24
969.782	350.11
970.062	349.61
970.342	349.43
970.622	350.55
970.902	351.58
971.182	351.14
971.462	351.88
971.741	351.4
972.021	349.26
972.3	350.92
972.58	351.29
972.859	349.96
973.138	351.12
973.418	350.98
973.697	351.84
973.976	349.9
974.255	352.52
974.534	351.77
974.813	350.27
975.092	350.51
975.37	348.05
975.649	350.67
975.928	350.79
976.206	350.75
976.485	353.69
976.763	351.28
977.041	350.08
977.32	350.89
977.598	350.53
977.876	350.98
978.154	350.14
978.432	350.86
978.71	348.75
978.988	351.15
979.265	351.12
979.543	351.75
979.821	350.52
980.098	350.65
980.376	351.9
980.653	351.31
980.93	349.52
981.208	351.11
981.485	349.58
981.762	351.42
982.039	348.94
982.316	349.98
982.593	351.28
982.87	349.12
983.146	349.79
983.423	349.59
983.7	349.7
983.976	349.15
984.253	350.33
984.529	351.31
984.805	349.47
985.082	350.14
985.358	348.83
985.634	350.65
985.91	351.26
986.186	351.07
986.462	350.15
986.738	350.37
987.013	350.91
987.289	348.88
987.565	351.02
987.84	348.64
988.116	350.61
988.391	348.57
988.666	350.14
988.942	351.71
989.217	350.57
989.492	349.85
989.767	350.17
990.042	348.28
990.317	348.07
990.592	348.93
990.866	349.12
991.141	350.04
991.416	352.15
991.69	348.41
991.964	347.98
992.239	350.18
992.513	349
992.787	350.99
993.062	349.57
993.336	348.24
993.61	349.64
993.884	350.1
994.158	351.42
994.431	347.92
994.705	349.84
994.979	350.18
995.252	349.88
995.526	349.52
995.799	348.96
996.073	348.99
996.346	349.16
996.619	348.51
996.892	350.1
997.165	350.03
997.438	350.29
997.711	348.06
997.984	348.64
998.257	351.94
998.53	347.17
998.802	349.72
999.075	349.7
999.347	349.91
999.62	349.85
999.892	349.04
1000.165	348.84
1000.437	348.49
1000.709	349.55
1000.981	347.57
1001.253	348.61
1001.525	347.22
1001.797	351.04
1002.068	348.23
1002.34	350.01
1002.612	349.42
1002.883	350.75
1003.155	347.06
1003.426	349.15
1003.698	350.74
1003.969	349.41
1004.24	348.8
1004.511	348.79
1004.782	348.68
1005.053	352.15
1005.324	348.44
1005.595	348.74
1005.866	349.23
1006.136	349.79
1006.407	346.13
1006.678	349.14
1006.948	351.18
1007.218	351.51
1007.489	347.98
1007.759	350.74
1008.029	349.03
1008.299	349.1
1008.569	348.89
1008.839	348.59
1009.109	348.17
1009.379	350.95
1009.649	349.18
1009.918	349.47
1010.188	349.77
1010.458	350.24
1010.727	348.23
1010.996	348.09
1011.266	349.48
1011.535	348.54
1011.804	349.87
1012.073	349.82
1012.342	348.5
1012.611	347.9
1012.88	350.32
1013.149	349.69
1013.417	350.43
1013.686	347.7
1013.955	350.68
1014.223	349.03
1014.492	350.49
1014.76	350.63
1015.028	350.57
1015.296	349.59
1015.565	348.66
1015.833	349.21
1016.101	349.4
1016.368	349.47
1016.636	349.83
1016.904	348.32
1017.172	347.9
1017.439	347.82
1017.707	347.64
1017.974	349.94
1018.242	349.18
1018.509	348.47
1018.776	347.54
1019.044	350.98
1019.311	349
1019.578	346.68
1019.845	349.15
1020.112	349.53
1020.378	349.53
1020.645	349.53
