Data from 190617_Kr_32K_dark_FLMS138901_12-58-10-970.txt Node
Date: Mon Jun 17 12:58:10 EDT 2019
User: pSAM
Spectrometer: FLMS13890
Trigger mode: 0
Integration Time (sec): 5.000000E-3
Scans to average: 1000
Electric dark correction enabled: true
Nonlinearity correction enabled: false
Boxcar width: 0
XAxis mode: Wavelengths
Number of Pixels in Spectrum: 2048
>>>>>Begin Spectral Data<<<<<
342.097	-62.07
342.483	-62.07
342.868	-62.07
343.254	-100.75
343.639	-102.52
344.025	-101.71
344.41	-98.59
344.796	-91.58
345.181	-80.1
345.567	-68.13
345.952	-53.08
346.337	-34.99
346.722	-17.5
347.107	0.12
347.493	20.05
347.878	38.15
348.263	58.33
348.648	77.51
349.033	99.35
349.418	118.04
349.802	134.12
350.187	153.58
350.572	170.45
350.957	189.13
351.342	204.57
351.726	221.51
352.111	234.26
352.495	247.22
352.88	258.99
353.264	273.7
353.649	281.61
354.033	291.45
354.418	303.24
354.802	308.08
355.186	314.24
355.57	321.54
355.955	326.04
356.339	330.6
356.723	333.24
357.107	334.7
357.491	365.14
357.875	341.83
358.259	341.28
358.643	343.69
359.026	341.26
359.41	342.14
359.794	339.56
360.178	341.28
360.561	338.76
360.945	337.65
361.329	336.27
361.712	336.02
362.096	334.21
362.479	334.69
362.862	331.52
363.246	329.7
363.629	327.35
364.012	327.43
364.396	325.43
364.779	323.72
365.162	322.45
365.545	322.25
365.928	321.48
366.311	317.74
366.694	316.97
367.077	313.89
367.46	314.15
367.843	315.02
368.226	312.73
368.608	313.81
368.991	314.47
369.374	313.6
369.756	314.21
370.139	311
370.521	313.34
370.904	314.14
371.286	311.9
371.669	313.23
372.051	311.28
372.433	313.42
372.816	313.76
373.198	313.24
373.58	313.8
373.962	315.4
374.344	314.33
374.726	314.76
375.108	316.64
375.49	314.89
375.872	314.81
376.254	315.83
376.636	319.53
377.018	317.47
377.399	320.16
377.781	320.19
378.163	319.1
378.544	320.62
378.926	321.06
379.307	320.07
379.689	320.14
380.07	322.28
380.452	323.82
380.833	323.59
381.214	323.92
381.596	325.28
381.977	326.1
382.358	325.33
382.739	325.95
383.12	323.57
383.501	327.44
383.882	325.72
384.263	328.52
384.644	328.5
385.025	326.75
385.406	328.19
385.787	328.04
386.167	329.08
386.548	329.72
386.929	330.98
387.309	330.59
387.69	328.73
388.07	329.98
388.451	330.32
388.831	332.15
389.211	330.3
389.592	332.39
389.972	331.72
390.352	333.06
390.733	331.79
391.113	331.04
391.493	331.68
391.873	334.64
392.253	334.27
392.633	336.34
393.013	336
393.393	334.87
393.772	335.69
394.152	336.3
394.532	335.21
394.912	336.82
395.291	335.43
395.671	339.27
396.05	337.92
396.43	338.32
396.809	339.01
397.189	337.82
397.568	338.36
397.948	338.58
398.327	338.52
398.706	338.2
399.085	338.64
399.465	338.08
399.844	339.78
400.223	340.79
400.602	341.13
400.981	340.82
401.36	341.03
401.739	342.22
402.117	341.71
402.496	341.41
402.875	342.42
403.254	343.46
403.632	341.91
404.011	341.09
404.39	343.13
404.768	343.84
405.147	346.41
405.525	345.77
405.903	344.89
406.282	344.91
406.66	344.29
407.038	345.82
407.417	346.3
407.795	346.64
408.173	346.35
408.551	344.47
408.929	345.99
409.307	346.55
409.685	347.01
410.063	348.62
410.441	347.02
410.818	348.1
411.196	347.51
411.574	347.38
411.952	347.87
412.329	349.57
412.707	348.35
413.084	348.65
413.462	352.27
413.839	350.24
414.217	351.82
414.594	350.46
414.971	351.33
415.349	352.31
415.726	349.52
416.103	350.91
416.48	351.66
416.857	350.56
417.234	353.79
417.611	354.31
417.988	351.43
418.365	352.07
418.742	351.58
419.119	351.96
419.495	354.05
419.872	354.07
420.249	358.83
420.625	354.04
421.002	353.6
421.379	354.89
421.755	355.27
422.131	353.65
422.508	354.36
422.884	356.89
423.26	356.79
423.637	356.85
424.013	355.83
424.389	356.49
424.765	356
425.141	356.41
425.517	355.86
425.893	357.55
426.269	358.09
426.645	355.89
427.021	357.05
427.397	356.48
427.772	358.66
428.148	357.52
428.524	357.94
428.899	359.72
429.275	358.06
429.651	358.28
430.026	356.01
430.401	356.06
430.777	357.91
431.152	360.77
431.527	360.09
431.903	359.21
432.278	359.43
432.653	361.57
433.028	360.78
433.403	360.74
433.778	360.19
434.153	360.79
434.528	359.45
434.903	363.24
435.278	367.57
435.653	368.44
436.027	369.71
436.402	369.91
436.777	367.65
437.151	365.72
437.526	362.47
437.9	360.98
438.275	363.01
438.649	362.82
439.023	360.92
439.398	361.28
439.772	363.12
440.146	361.93
440.52	363.18
440.895	363.63
441.269	363.17
441.643	363.02
442.017	361.78
442.391	363.42
442.765	363.7
443.138	364.14
443.512	364.03
443.886	363.09
444.26	363.89
444.633	364.98
445.007	366.97
445.38	365.87
445.754	363.81
446.127	365.51
446.501	365.5
446.874	365.9
447.248	364.23
447.621	364.83
447.994	365.21
448.367	366.78
448.741	366.79
449.114	365.65
449.487	366.55
449.86	366.24
450.233	365.16
450.606	367.6
450.978	367.43
451.351	380.05
451.724	369.19
452.097	366.43
452.469	366.28
452.842	366.47
453.215	366.98
453.587	365.29
453.96	366.2
454.332	367.46
454.704	368.41
455.077	368.71
455.449	368.71
455.821	366.86
456.194	368.45
456.566	369.17
456.938	369.64
457.31	368.68
457.682	368.23
458.054	368.89
458.426	368.12
458.798	367.41
459.17	369.12
459.541	368.72
459.913	369.59
460.285	367.87
460.656	369.71
461.028	367.49
461.399	368.14
461.771	366.77
462.142	368.71
462.514	367.68
462.885	369.71
463.256	368.5
463.628	367.83
463.999	368.49
464.37	369.98
464.741	368.13
465.112	367.04
465.483	370.23
465.854	370.23
466.225	369.57
466.596	367.35
466.967	367.31
467.338	368.39
467.708	369.45
468.079	369.56
468.45	371.81
468.82	369.03
469.191	371.27
469.561	371.44
469.932	368.49
470.302	367.38
470.673	368.32
471.043	370.5
471.413	371.43
471.783	368.28
472.154	368.52
472.524	370.24
472.894	369.63
473.264	369.76
473.634	369.07
474.004	369.72
474.374	371.15
474.743	371.15
475.113	368.67
475.483	369.89
475.853	371.18
476.222	370.67
476.592	372.9
476.961	370.82
477.331	369.37
477.7	369.71
478.07	370.34
478.439	370.63
478.808	370.7
479.178	371.72
479.547	370.28
479.916	370.6
480.285	370.98
480.654	370.39
481.023	371.29
481.392	370.5
481.761	368.65
482.13	371.77
482.499	370.59
482.867	369.45
483.236	371.54
483.605	372.16
483.973	371.66
484.342	371.74
484.71	372.59
485.079	373.61
485.447	374.52
485.816	374.92
486.184	374.7
486.552	376.33
486.921	376.28
487.289	374.81
487.657	377.16
488.025	375.41
488.393	376.56
488.761	376.13
489.129	376.23
489.497	375.49
489.865	376.37
490.233	376.93
490.6	375.65
490.968	375.1
491.336	375.81
491.703	374.8
492.071	377.39
492.438	375.01
492.806	374.05
493.173	374.92
493.541	374.28
493.908	373.91
494.275	374.75
494.642	374.75
495.01	375.88
495.377	373.84
495.744	373.98
496.111	373.16
496.478	373.27
496.845	373.08
497.211	371.43
497.578	372.3
497.945	374.13
498.312	373.07
498.678	372.17
499.045	373.16
499.412	373.28
499.778	374.04
500.145	371.88
500.511	372.45
500.878	371.65
501.244	372.88
501.61	372.57
501.976	371.82
502.343	370.47
502.709	371.52
503.075	369.12
503.441	371.55
503.807	372.1
504.173	372.78
504.539	371.91
504.905	370.7
505.27	372.98
505.636	370.62
506.002	370.03
506.367	370.97
506.733	372.82
507.099	370.73
507.464	370.7
507.829	369.24
508.195	371.26
508.56	372.11
508.926	370.91
509.291	370.49
509.656	371.34
510.021	370.85
510.386	370.26
510.751	371.65
511.116	369.21
511.481	369.56
511.846	371.61
512.211	369.92
512.576	369.77
512.941	370.6
513.305	370.78
513.67	370.54
514.035	371.01
514.399	371.14
514.764	370.26
515.128	369.85
515.493	369.88
515.857	371.08
516.221	371.56
516.585	368.77
516.95	368.39
517.314	371.87
517.678	371.09
518.042	370.27
518.406	371.28
518.77	369
519.134	369.24
519.498	369.71
519.862	370.52
520.225	369.18
520.589	370.99
520.953	369.38
521.316	369.53
521.68	371.38
522.043	370.08
522.407	371.9
522.77	368.9
523.134	369.08
523.497	369.71
523.86	369.5
524.223	370.01
524.587	371.14
524.95	370.69
525.313	369.7
525.676	369.03
526.039	369.09
526.402	368.47
526.765	368.92
527.127	372.1
527.49	369.28
527.853	369.71
528.215	370.08
528.578	372.39
528.941	369.76
529.303	366.76
529.666	367.65
530.028	369.28
530.39	368.48
530.753	370.7
531.115	370.72
531.477	370.93
531.839	369.38
532.201	368.89
532.564	369.41
532.926	370.56
533.287	366.8
533.649	370.66
534.011	370.69
534.373	369.05
534.735	369.24
535.097	368.51
535.458	367.11
535.82	369.32
536.181	370.85
536.543	369.43
536.904	370.3
537.266	371.19
537.627	372.52
537.988	371.34
538.35	373.21
538.711	374.99
539.072	375.08
539.433	375.93
539.794	377.21
540.155	378.5
540.516	380.81
540.877	380.3
541.238	385.13
541.599	392.82
541.959	397.27
542.32	406.86
542.681	408.38
543.041	413.07
543.402	413.78
543.762	413.93
544.123	412.18
544.483	412.37
544.844	409.42
545.204	407.47
545.564	411.75
545.924	416.65
546.284	415.06
546.644	406.94
547.004	396.18
547.364	389.64
547.724	384.97
548.084	381.71
548.444	378.17
548.804	379.77
549.164	381.21
549.523	379.3
549.883	380.67
550.242	378.78
550.602	377.19
550.961	378.01
551.321	376.84
551.68	375.5
552.04	378.23
552.399	375.26
552.758	376.73
553.117	374.54
553.476	373.57
553.835	373.68
554.194	371.48
554.553	372.56
554.912	371.22
555.271	369.59
555.63	368.88
555.989	368.48
556.347	367.95
556.706	368.78
557.065	366.89
557.423	369.02
557.782	367.69
558.14	367.77
558.499	367.09
558.857	367.88
559.215	367.81
559.573	368.1
559.932	366.11
560.29	367.78
560.648	367.73
561.006	369.69
561.364	369.47
561.722	366.83
562.08	367.82
562.438	366.62
562.795	366.61
563.153	368.07
563.511	366.25
563.868	367.23
564.226	365.78
564.583	368.38
564.941	365.93
565.298	367.78
565.656	365.66
566.013	366.34
566.37	365.41
566.727	365.36
567.085	366.57
567.442	368.49
567.799	366.47
568.156	368.7
568.513	364.46
568.87	368.46
569.226	366.88
569.583	365.11
569.94	365.65
570.297	367.74
570.653	366.36
571.01	366.6
571.366	366.52
571.723	365.86
572.079	365.39
572.436	367.04
572.792	365.93
573.148	365.77
573.505	367.13
573.861	365.13
574.217	367.67
574.573	367.09
574.929	365.36
575.285	367.2
575.641	367.61
575.997	368.15
576.352	367.93
576.708	368.1
577.064	371.08
577.42	370.18
577.775	369.65
578.131	369.49
578.486	370.45
578.842	368.5
579.197	370.65
579.552	373.81
579.908	371.59
580.263	373.64
580.618	370.05
580.973	372.54
581.328	370.33
581.683	370.46
582.038	371.52
582.393	372.98
582.748	374.42
583.103	373.14
583.458	375.57
583.812	374.69
584.167	376.21
584.522	376.14
584.876	377.93
585.231	373.27
585.585	373.57
585.939	373.32
586.294	373.94
586.648	373.23
587.002	374.7
587.356	375.98
587.711	377.53
588.065	377.77
588.419	376.76
588.773	373.93
589.127	371.81
589.48	372.95
589.834	373.07
590.188	373.35
590.542	373.02
590.895	370.84
591.249	369.73
591.603	370.09
591.956	370.55
592.309	370.73
592.663	372.25
593.016	370.08
593.369	371.99
593.723	369.94
594.076	369.96
594.429	368.11
594.782	369.8
595.135	366.11
595.488	366.06
595.841	367.44
596.194	366.45
596.547	366.53
596.899	365.39
597.252	365.7
597.605	367.14
597.957	367.04
598.31	366.8
598.662	367.83
599.015	366.69
599.367	367.38
599.719	369.03
600.072	368.77
600.424	369.02
600.776	368.02
601.128	368
601.48	365.4
601.832	364.75
602.184	366.23
602.536	365.31
602.888	365.6
603.24	366.23
603.592	363.25
603.943	367.27
604.295	365.3
604.646	365.18
604.998	366.63
605.349	365.31
605.701	364.84
606.052	365.41
606.404	364.22
606.755	365.27
607.106	365.55
607.457	366.36
607.808	364.91
608.159	364.34
608.51	367.06
608.861	369.2
609.212	367.52
609.563	369.56
609.914	374.55
610.265	377.46
610.615	389.11
610.966	402.18
611.316	416.16
611.667	425.41
612.017	421.12
612.368	411.49
612.718	401.98
613.068	393.15
613.419	388.88
613.769	385.26
614.119	379.07
614.469	380.57
614.819	378.96
615.169	379.61
615.519	376.71
615.869	373.93
616.219	372.23
616.568	369.71
616.918	371.15
617.268	370.09
617.617	369.01
617.967	369.8
618.316	369.28
618.666	365.78
619.015	367.97
619.364	370.74
619.714	369.77
620.063	370.43
620.412	369.41
620.761	369.73
621.11	369.95
621.459	371.13
621.808	369.34
622.157	368.89
622.506	369.2
622.855	366.42
623.203	368.78
623.552	367.64
623.901	365.84
624.249	368.24
624.598	367.92
624.946	364.96
625.295	368.98
625.643	367.99
625.991	366.18
626.34	366.96
626.688	367.36
627.036	364.74
627.384	365.75
627.732	364.21
628.08	366.35
628.428	364.77
628.776	363.84
629.124	365.35
629.471	365.2
629.819	365.35
630.167	364.41
630.514	367.17
630.862	367.72
631.209	367.01
631.557	368.67
631.904	368.87
632.251	366.98
632.599	364.57
632.946	364.73
633.293	363.94
633.64	364.43
633.987	363.71
634.334	363.45
634.681	361.73
635.028	362.39
635.375	361.61
635.722	362.83
636.068	362.52
636.415	362.18
636.762	361.76
637.108	362.16
637.455	361.68
637.801	363.96
638.147	363.35
638.494	360.73
638.84	361.22
639.186	363.33
639.532	361.86
639.878	362.04
640.225	362.53
640.571	361.51
640.916	360.77
641.262	360.82
641.608	361.72
641.954	359.64
642.3	362.71
642.645	361.71
642.991	361.98
643.337	360.81
643.682	360.72
644.028	362.84
644.373	361.25
644.718	360.63
645.064	361.96
645.409	362.88
645.754	360.83
646.099	361.04
646.444	362.3
646.789	359.85
647.134	360.28
647.479	360.82
647.824	363.36
648.169	361.53
648.513	361.12
648.858	361.73
649.203	361.84
649.547	363.44
649.892	361.64
650.236	363.37
650.581	363.93
650.925	363.33
651.269	364.2
651.613	362.12
651.958	363.28
652.302	361.74
652.646	360.26
652.99	361.99
653.334	361.38
653.678	360.01
654.022	360.58
654.365	361.45
654.709	363.21
655.053	362.1
655.396	361.19
655.74	363.96
656.083	361.63
656.427	360.48
656.77	359.37
657.114	361.96
657.457	361.2
657.8	359.81
658.143	360.37
658.486	360.63
658.83	361.74
659.173	358.72
659.516	362.11
659.858	360.64
660.201	359.28
660.544	360.78
660.887	359.98
661.229	360.08
661.572	360.72
661.915	361.21
662.257	360.03
662.6	361.29
662.942	361.34
663.284	361.22
663.627	362.15
663.969	360.56
664.311	360.64
664.653	361.24
664.995	359.33
665.337	362.46
665.679	362.05
666.021	360.71
666.363	360.1
666.705	359.95
667.046	362.47
667.388	363.53
667.73	360.99
668.071	360.68
668.413	360.05
668.754	359.93
669.096	358.05
669.437	359.5
669.778	359.93
670.119	358.63
670.461	360.76
670.802	360.8
671.143	360.69
671.484	360.48
671.825	361.73
672.165	361.4
672.506	360.57
672.847	359.23
673.188	360.8
673.528	358.2
673.869	359.25
674.21	361.41
674.55	361.05
674.89	358.14
675.231	361.84
675.571	358.78
675.911	360.27
676.252	358.94
676.592	358.77
676.932	361.94
677.272	358.58
677.612	360.3
677.952	359.56
678.292	359.21
678.631	360.85
678.971	360.21
679.311	359.38
679.651	360.96
679.99	360.07
680.33	361.01
680.669	359.75
681.009	360.68
681.348	358.49
681.687	360.6
682.026	360.85
682.366	360.2
682.705	359.24
683.044	359.31
683.383	359.95
683.722	359.33
684.061	359.84
684.4	360.56
684.738	360
685.077	358.23
685.416	359.72
685.754	358.55
686.093	358.69
686.431	359.68
686.77	358.77
687.108	359.53
687.447	359.34
687.785	360.52
688.123	359.28
688.461	360.82
688.799	358.87
689.137	358.57
689.475	360.85
689.813	359.32
690.151	360.73
690.489	357.68
690.827	357.66
691.164	359.82
691.502	357.82
691.84	358.91
692.177	358.65
692.515	358.07
692.852	360.59
693.189	358.74
693.527	360.75
693.864	358.36
694.201	358.28
694.538	358.35
694.875	360.09
695.212	358.31
695.549	361.26
695.886	358.45
696.223	357.55
696.56	358.88
696.897	357.47
697.233	359.71
697.57	358.51
697.906	358.98
698.243	356.85
698.579	358.68
698.916	357.66
699.252	360.43
699.588	361.08
699.924	359.87
700.261	359.41
700.597	358.23
700.933	358.89
701.269	357.58
701.605	357.5
701.941	357.79
702.276	357.43
702.612	357.9
702.948	359.5
703.283	358.28
703.619	359.95
703.954	357.76
704.29	358.75
704.625	358.62
704.961	359.01
705.296	357.24
705.631	357.83
705.966	357.97
706.301	356.1
706.637	359.47
706.972	358.8
707.306	361.29
707.641	361.65
707.976	362.2
708.311	359.38
708.646	358.91
708.98	360.68
709.315	361.8
709.649	361.45
709.984	359.85
710.318	360.45
710.653	360.31
710.987	359.85
711.321	358.25
711.655	359.18
711.989	358.7
712.324	361.87
712.658	360.92
712.992	359.64
713.325	358.07
713.659	359.74
713.993	359.83
714.327	358.32
714.66	358.69
714.994	357.76
715.328	357.71
715.661	357.81
715.994	357.42
716.328	359.45
716.661	358.08
716.994	357.71
717.328	356.74
717.661	358.52
717.994	357.3
718.327	358.58
718.66	360.21
718.993	358.41
719.325	359.18
719.658	359.3
719.991	357.44
720.324	358.86
720.656	357.5
720.989	358.45
721.321	358.08
721.654	359.04
721.986	357.32
722.318	357.72
722.651	357.61
722.983	357
723.315	357.52
723.647	358.26
723.979	356.08
724.311	358.61
724.643	357.58
724.975	358.27
725.307	356.88
725.638	354.93
725.97	359.12
726.302	357.66
726.633	356.62
726.965	358.83
727.296	358.24
727.628	356.28
727.959	357.21
728.29	357.31
728.621	356.32
728.952	358.62
729.284	358.17
729.615	355.41
729.945	356.97
730.276	357.86
730.607	357.88
730.938	357.56
731.269	357.45
731.599	356.55
731.93	356.2
732.261	356.62
732.591	357.29
732.922	357.42
733.252	358.97
733.582	357.33
733.912	356.33
734.243	357.71
734.573	357.14
734.903	356.92
735.233	357.52
735.563	356.49
735.893	356.48
736.223	354.22
736.552	356.15
736.882	358.46
737.212	355.66
737.541	354.84
737.871	357.52
738.2	357.96
738.53	357.71
738.859	355.58
739.188	355.94
739.518	356.39
739.847	357.56
740.176	355.81
740.505	356.61
740.834	358.46
741.163	356.55
741.492	358.1
741.821	359.1
742.15	356.8
742.478	356.26
742.807	355.69
743.136	358
743.464	356.48
743.793	356.29
744.121	356.04
744.449	356.43
744.778	354.73
745.106	356.8
745.434	356.65
745.762	356.42
746.09	354.94
746.418	356.77
746.746	356.32
747.074	354.8
747.402	356.98
747.73	357.09
748.057	356.35
748.385	356.31
748.712	355.94
749.04	356.84
749.367	356.75
749.695	356.13
750.022	355.18
750.349	356.08
750.677	356.65
751.004	360.77
751.331	357.91
751.658	356.16
751.985	357.6
752.312	356.59
752.639	357.22
752.966	355.9
753.292	357.33
753.619	355.98
753.946	357.23
754.272	356.63
754.599	354.94
754.925	356.47
755.251	356.8
755.578	358.62
755.904	356.22
756.23	355.66
756.556	355.52
756.882	355
757.208	357.27
757.534	358.79
757.86	355.17
758.186	355.27
758.512	355.15
758.838	355.52
759.163	354.93
759.489	355.61
759.814	356.28
760.14	357.34
760.465	356.19
760.791	355.83
761.116	355.52
761.441	354.69
761.766	356.95
762.092	356.07
762.417	355.62
762.742	355.68
763.066	354.56
763.391	355.98
763.716	354.68
764.041	354.84
764.366	356.46
764.69	354.96
765.015	357.04
765.339	355.89
765.664	355.69
765.988	356.07
766.312	356.26
766.637	354.47
766.961	356.92
767.285	353.78
767.609	357.19
767.933	356.16
768.257	354.56
768.581	353.92
768.905	354.77
769.229	355.94
769.552	357.43
769.876	355.43
770.2	355.97
770.523	355.88
770.847	355.94
771.17	355.8
771.493	354.09
771.817	356.4
772.14	357.43
772.463	355.84
772.786	356.05
773.109	353.19
773.432	355.88
773.755	355.01
774.078	353.49
774.401	354.52
774.724	355.47
775.046	355.06
775.369	356.67
775.692	354.95
776.014	355.86
776.336	355.61
776.659	353.65
776.981	356.28
777.303	355.62
777.626	355.99
777.948	352.1
778.27	354.96
778.592	353.66
778.914	353
779.236	354.99
779.557	355.09
779.879	356.79
780.201	355.22
780.523	354.33
780.844	354.8
781.166	355.74
781.487	353.59
781.809	354.54
782.13	354.84
782.451	355.54
782.772	354.96
783.094	354.26
783.415	354.54
783.736	356.03
784.057	354.28
784.378	353.84
784.698	354.76
785.019	353.29
785.34	355.95
785.661	355.12
785.981	354.65
786.302	353.36
786.622	354.08
786.943	353.44
787.263	353.51
787.583	355.63
787.903	354.3
788.224	355.18
788.544	356.89
788.864	356.6
789.184	355.05
789.504	355.23
789.824	354.88
790.143	354.56
790.463	353.43
790.783	354.95
791.102	354.37
791.422	355.5
791.741	352.78
792.061	357.01
792.38	354.17
792.699	352.39
793.019	355.35
793.338	353.5
793.657	355.67
793.976	355.57
794.295	354.95
794.614	356.68
794.933	355.16
795.252	354.54
795.57	355.09
795.889	354.97
796.208	356.03
796.526	356.9
796.845	353.81
797.163	353.99
797.482	354.73
797.8	353.05
798.118	355.55
798.436	354.09
798.754	353.9
799.073	352.58
799.391	354.24
799.708	355.13
800.026	354.73
800.344	353.37
800.662	354.02
800.98	353.72
801.297	353.27
801.615	352.8
801.932	354.59
802.25	354.27
802.567	353.36
802.884	354.88
803.202	354.75
803.519	353.66
803.836	352.62
804.153	353.57
804.47	352.94
804.787	353.1
805.104	353.59
805.421	355.01
805.737	354.24
806.054	354.49
806.371	354.49
806.687	354.11
807.004	352.49
807.32	353.44
807.637	352.67
807.953	354.11
808.269	353.47
808.585	352.43
808.902	355.27
809.218	354.9
809.534	354.08
809.85	354.14
810.165	353.55
810.481	353.23
810.797	352.45
811.113	354.16
811.428	354.37
811.744	354.07
812.059	354.93
812.375	355.72
812.69	354.74
813.006	353.82
813.321	354.44
813.636	353.56
813.951	354.02
814.266	353.77
814.581	353.54
814.896	352.05
815.211	354.48
815.526	352.12
815.841	355.88
816.155	352.23
816.47	354.36
816.784	354.46
817.099	353.4
817.413	353.78
817.728	352.31
818.042	351.8
818.356	353.54
818.67	353.8
818.985	353.13
819.299	353.36
819.613	355.55
819.926	352.94
820.24	354
820.554	353.8
820.868	355.92
821.182	353.41
821.495	355.07
821.809	353.24
822.122	352.65
822.436	354.26
822.749	353.94
823.062	352.86
823.376	354.05
823.689	352.97
824.002	353.32
824.315	353.33
824.628	352.53
824.941	352.87
825.254	352.94
825.566	354.44
825.879	353.16
826.192	352.74
826.504	353.31
826.817	352.78
827.129	352.78
827.442	354.22
827.754	355.35
828.066	353.36
828.379	353.15
828.691	353.36
829.003	352.66
829.315	349.09
829.627	351.77
829.939	351.67
830.251	350.18
830.562	352.23
830.874	353.26
831.186	353.29
831.497	352.89
831.809	351.81
832.12	352.75
832.432	354.81
832.743	353.15
833.054	351.96
833.365	352.86
833.676	353.72
833.988	352.1
834.299	351.87
834.61	351.19
834.92	353.28
835.231	353.06
835.542	351.8
835.853	353.49
836.163	350.89
836.474	353.83
836.784	353.72
837.095	354.16
837.405	352.89
837.715	353.82
838.026	355.43
838.336	355.05
838.646	353.7
838.956	352.4
839.266	351.96
839.576	353.48
839.886	353.68
840.195	353.1
840.505	350.87
840.815	354.89
841.124	352.82
841.434	352.1
841.743	352.44
842.053	354.33
842.362	354.12
842.671	353.53
842.981	352.73
843.29	352.89
843.599	352.59
843.908	352.88
844.217	352.83
844.526	353.03
844.835	354.07
845.143	352.59
845.452	351.91
845.761	353.03
846.069	352.81
846.378	350.78
846.686	352.9
846.995	353.7
847.303	353.85
847.611	353.84
847.919	352.9
848.227	353.73
848.535	354.17
848.843	353.77
849.151	351.36
849.459	351.3
849.767	352.95
850.075	353.1
850.382	352.53
850.69	355.38
850.998	352.88
851.305	351.73
851.612	352.15
851.92	352.24
852.227	352.78
852.534	351.6
852.841	351.21
853.148	350.91
853.455	351.32
853.762	352.69
854.069	352.66
854.376	351.28
854.683	352.14
854.99	354.41
855.296	351.89
855.603	351.11
855.909	352.27
856.216	353.01
856.522	352.06
856.828	352.21
857.135	351.4
857.441	350.95
857.747	351.43
858.053	351.77
858.359	352.08
858.665	352.48
858.971	352.92
859.276	354.04
859.582	352.36
859.888	351.46
860.193	350.81
860.499	352.6
860.804	350.49
861.11	352.96
861.415	351.39
861.72	354.16
862.026	352.62
862.331	353.96
862.636	351.8
862.941	351.77
863.246	350.65
863.551	352.14
863.855	351.76
864.16	353.75
864.465	352.03
864.769	352.58
865.074	352.33
865.378	351.7
865.683	350.68
865.987	351.37
866.291	352.17
866.596	350.56
866.9	352.62
867.204	352.41
867.508	351.23
867.812	351.59
868.116	351.28
868.42	352.24
868.723	351.79
869.027	353.39
869.331	352.34
869.634	353.67
869.938	351.79
870.241	352.87
870.544	351.08
870.848	351.57
871.151	351.57
871.454	350.15
871.757	351.38
872.06	349.64
872.363	349.56
872.666	351.27
872.969	350.07
873.272	351.72
873.574	352.59
873.877	351.02
874.18	351.85
874.482	352.38
874.785	351.27
875.087	351.9
875.389	352.33
875.692	351.71
875.994	353.37
876.296	351.17
876.598	352.1
876.9	352.62
877.202	350.93
877.504	349.6
877.805	350.45
878.107	350.88
878.409	351.76
878.71	351.89
879.012	351.44
879.313	350.6
879.615	350.74
879.916	350
880.217	351.18
880.518	351.45
880.82	350.22
881.121	353.06
881.422	349.31
881.723	350.2
882.023	351.22
882.324	353.06
882.625	352.31
882.926	350.9
883.226	349.75
883.527	351.87
883.827	351.48
884.128	348.97
884.428	352.21
884.728	351.86
885.028	351.37
885.328	352.08
885.629	352.06
885.929	350.4
886.228	352.22
886.528	352.08
886.828	351.98
887.128	351.55
887.427	351.8
887.727	350.89
888.027	351.86
888.326	348.03
888.625	351.3
888.925	351.01
889.224	351.36
889.523	349.59
889.822	350.71
890.121	351.16
890.42	351.37
890.719	351.63
891.018	352.42
891.317	351.39
891.616	350.65
891.914	350.23
892.213	350.82
892.512	349.95
892.81	351.53
893.108	351.34
893.407	349.33
893.705	351.28
894.003	351.73
894.301	352.34
894.599	350.19
894.897	350.01
895.195	349.81
895.493	351.41
895.791	350.53
896.089	351.08
896.386	348.87
896.684	351.47
896.981	351.75
897.279	351.02
897.576	352.16
897.874	349.91
898.171	350.6
898.468	350.39
898.765	351.57
899.062	350.61
899.359	350.81
899.656	350.12
899.953	350.72
900.25	352.74
900.547	351.99
900.843	350.69
901.14	349.29
901.436	349.14
901.733	351.12
902.029	349.21
902.325	351.84
902.622	349.77
902.918	350.13
903.214	350.6
903.51	350.14
903.806	351.09
904.102	350.53
904.398	351.21
904.694	348.26
904.989	350.75
905.285	349.19
905.581	351.36
905.876	349.46
906.171	349.99
906.467	349.51
906.762	351.01
907.057	350.46
907.353	351.51
907.648	349.64
907.943	350.23
908.238	348.75
908.533	350.1
908.827	349.89
909.122	349.66
909.417	350.95
909.711	348.35
910.006	350.47
910.301	350.04
910.595	350.44
910.889	350.96
911.184	349.13
911.478	349.9
911.772	350.37
912.066	351
912.36	349.45
912.654	350.23
912.948	350.1
913.242	352.03
913.536	348.91
913.829	349.45
914.123	347.85
914.416	348.8
914.71	349.1
915.003	348.22
915.297	349.84
915.59	348.73
915.883	350.82
916.176	351.4
916.469	351.34
916.762	351.47
917.055	348.95
917.348	349.35
917.641	348.42
917.934	351.27
918.226	349.87
918.519	351.04
918.811	351.45
919.104	352.26
919.396	349.24
919.689	347.73
919.981	348.01
920.273	349.87
920.565	352
920.857	349.36
921.149	350.93
921.441	347.43
921.733	348.77
922.025	349.41
922.316	349.72
922.608	349.15
922.9	350.8
923.191	348.43
923.483	351.06
923.774	350.32
924.065	349.22
924.357	350.82
924.648	347.97
924.939	348.69
925.23	347.5
925.521	349.26
925.812	348.41
926.102	351.04
926.393	350.6
926.684	348.76
926.975	348.04
927.265	350.54
927.556	350.39
927.846	350.75
928.136	349.1
928.427	349.04
928.717	350.48
929.007	348.13
929.297	349.24
929.587	349.05
929.877	350.75
930.167	348.76
930.457	351.51
930.746	349.67
931.036	348.45
931.325	350.91
931.615	348.85
931.904	349.83
932.194	350.98
932.483	349.14
932.772	349.3
933.062	349.47
933.351	347.76
933.64	349.18
933.929	348.9
934.218	348.18
934.506	348.91
934.795	348.63
935.084	349.92
935.372	348.68
935.661	348.65
935.949	347.51
936.238	350.06
936.526	350.75
936.815	346.95
937.103	350.79
937.391	348.43
937.679	348.95
937.967	348.09
938.255	349.75
938.543	347.69
938.831	347.3
939.118	347.03
939.406	349.76
939.693	351.8
939.981	350.82
940.268	349.99
940.556	349.49
940.843	348.44
941.13	349.25
941.418	348.41
941.705	348.6
941.992	348.51
942.279	350.54
942.566	348.18
942.852	349.89
943.139	350.14
943.426	351.1
943.712	347.97
943.999	348.08
944.285	348.24
944.572	348.71
944.858	349.74
945.144	348.8
945.431	346.88
945.717	349.5
946.003	350.49
946.289	349.04
946.575	348.26
946.861	350.38
947.146	347.38
947.432	350.16
947.718	347.93
948.003	349.5
948.289	349.24
948.574	347.77
948.86	349.64
949.145	350.11
949.43	350.77
949.715	349.13
950	349.88
950.285	350.8
950.57	348.39
950.855	348.1
951.14	348.05
951.425	349.43
951.709	348.35
951.994	348.26
952.278	346.99
952.563	346.83
952.847	347.65
953.132	348.84
953.416	349.6
953.7	349.07
953.984	349.01
954.268	348.42
954.552	348.8
954.836	347.73
955.12	350.44
955.404	347.1
955.687	349.07
955.971	348.18
956.254	346.64
956.538	349.52
956.821	348.82
957.105	347.68
957.388	348.2
957.671	347.79
957.954	350.5
958.237	348.98
958.52	347.5
958.803	348.12
959.086	344.98
959.369	347.79
959.652	348.34
959.934	348.7
960.217	348.03
960.499	348.63
960.782	348.81
961.064	348.59
961.346	349.67
961.629	348.05
961.911	347.75
962.193	347.63
962.475	348.54
962.757	347.52
963.039	349.11
963.32	347.78
963.602	348.07
963.884	347.84
964.165	347.14
964.447	347.87
964.728	347.08
965.01	350.54
965.291	347.66
965.572	347.59
965.853	349.41
966.134	348.74
966.415	349.65
966.696	347.68
966.977	346.61
967.258	347.08
967.539	347.18
967.819	349.58
968.1	348.79
968.38	346.82
968.661	346.98
968.941	346.63
969.222	348.55
969.502	349.97
969.782	348.78
970.062	348.73
970.342	347.31
970.622	349.56
970.902	348.87
971.182	351.02
971.462	346.83
971.741	348.03
972.021	348.21
972.3	346.73
972.58	345.98
972.859	348.4
973.138	348.16
973.418	349.05
973.697	347.36
973.976	349.03
974.255	347.94
974.534	347.37
974.813	346.21
975.092	347.08
975.37	346.31
975.649	349.55
975.928	347.37
976.206	346.82
976.485	347.58
976.763	347.36
977.041	347.46
977.32	347.34
977.598	348.2
977.876	348.43
978.154	348.25
978.432	349.24
978.71	348.21
978.988	348.85
979.265	348.27
979.543	347.05
979.821	347.61
980.098	347.55
980.376	346.55
980.653	347.95
980.93	347.82
981.208	348.38
981.485	347.52
981.762	346.73
982.039	347.57
982.316	347.89
982.593	347.21
982.87	348.62
983.146	348.48
983.423	349.6
983.7	348.22
983.976	347.17
984.253	348.58
984.529	347.2
984.805	346.27
985.082	347.72
985.358	349.07
985.634	346.79
985.91	347.96
986.186	348.36
986.462	347.6
986.738	347.06
987.013	347.51
987.289	348.89
987.565	349.05
987.84	345.9
988.116	347.22
988.391	348.36
988.666	347.89
988.942	348.54
989.217	346.14
989.492	347.68
989.767	347.07
990.042	346.54
990.317	347.65
990.592	347.78
990.866	345.72
991.141	348.17
991.416	346.83
991.69	345.87
991.964	346.15
992.239	347.62
992.513	346.21
992.787	346.95
993.062	345.63
993.336	347.41
993.61	346.03
993.884	346.05
994.158	346.53
994.431	346.79
994.705	348.36
994.979	348.18
995.252	347.21
995.526	348.2
995.799	347.43
996.073	344.72
996.346	347.65
996.619	346.28
996.892	347.49
997.165	346.74
997.438	346.73
997.711	347.44
997.984	346.14
998.257	346.66
998.53	349.38
998.802	346.35
999.075	345.99
999.347	348.03
999.62	347.09
999.892	346.08
1000.165	347.6
1000.437	347.4
1000.709	347
1000.981	347.46
1001.253	346.5
1001.525	348.54
1001.797	346.53
1002.068	346.4
1002.34	346.65
1002.612	349
1002.883	349.18
1003.155	346.1
1003.426	346.12
1003.698	347.68
1003.969	348.09
1004.24	347.73
1004.511	348.05
1004.782	345
1005.053	342.66
1005.324	345.53
1005.595	346.38
1005.866	345.97
1006.136	347.58
1006.407	344.91
1006.678	346.67
1006.948	347.19
1007.218	346.42
1007.489	348.14
1007.759	344.84
1008.029	344.75
1008.299	346.12
1008.569	345.46
1008.839	345.2
1009.109	345.49
1009.379	346.31
1009.649	347.2
1009.918	345.76
1010.188	346.08
1010.458	347.89
1010.727	346.52
1010.996	347.83
1011.266	345.4
1011.535	344.99
1011.804	344.58
1012.073	346.14
1012.342	347.42
1012.611	346
1012.88	348.02
1013.149	345.76
1013.417	346.88
1013.686	343.97
1013.955	348.16
1014.223	345.88
1014.492	346.91
1014.76	346.2
1015.028	344.46
1015.296	346.15
1015.565	347.21
1015.833	345.84
1016.101	345.36
1016.368	345.43
1016.636	345.73
1016.904	344.77
1017.172	343.88
1017.439	345.06
1017.707	347.75
1017.974	345.18
1018.242	346.01
1018.509	346.2
1018.776	346.09
1019.044	346.73
1019.311	346.07
1019.578	346.69
1019.845	346.01
1020.112	346.04
1020.378	346.04
1020.645	346.04
