Data from 190628_Kr_44K_film_FLMS138901_16-09-49-414.txt Node
Date: Fri Jun 28 16:09:49 EDT 2019
User: pSAM
Spectrometer: FLMS13890
Trigger mode: 0
Integration Time (sec): 5.000000E-3
Scans to average: 1000
Electric dark correction enabled: true
Nonlinearity correction enabled: false
Boxcar width: 0
XAxis mode: Wavelengths
Number of Pixels in Spectrum: 2048
>>>>>Begin Spectral Data<<<<<
342.097	-52.54
342.483	-52.54
342.868	-52.54
343.254	-96.79
343.639	-99.91
344.025	-100.3
344.41	-94.17
344.796	-88.04
345.181	-79.99
345.567	-66.44
345.952	-51.32
346.337	-37.09
346.722	-18.94
347.107	-1.23
347.493	18.12
347.878	38.26
348.263	57.27
348.648	79.14
349.033	96
349.418	113.91
349.802	134.81
350.187	155.31
350.572	170.78
350.957	233.67
351.342	360.83
351.726	385.41
352.111	399.17
352.495	415.1
352.88	426.87
353.264	442.33
353.649	457.18
354.033	466.53
354.418	477.9
354.802	488.65
355.186	494.38
355.57	503.55
355.955	510.19
356.339	517.18
356.723	519.68
357.107	525.7
357.491	568.31
357.875	533.27
358.259	533.88
358.643	537.17
359.026	539.93
359.41	541.31
359.794	544.91
360.178	544.59
360.561	542.43
360.945	543.74
361.329	543.96
361.712	546.48
362.096	545.15
362.479	544.77
362.862	544.53
363.246	543.39
363.629	541.82
364.012	544.27
364.396	542.33
364.779	543.47
365.162	542.97
365.545	546.06
365.928	544.3
366.311	544.36
366.694	547.56
367.077	549.46
367.46	549.28
367.843	550.82
368.226	551.69
368.608	552.46
368.991	555.56
369.374	556.52
369.756	556.53
370.139	555.52
370.521	555.83
370.904	559.07
371.286	561.77
371.669	558.38
372.051	562.73
372.433	565.96
372.816	565.48
373.198	567.05
373.58	571.31
373.962	571.26
374.344	574.25
374.726	577.76
375.108	578.05
375.49	582.71
375.872	583.83
376.254	583.72
376.636	583.28
377.018	583.17
377.399	584.53
377.781	586.92
378.163	587.64
378.544	591.96
378.926	596
379.307	600.46
379.689	606.77
380.07	610.07
380.452	614.24
380.833	615.97
381.214	617.69
381.596	620.23
381.977	626.31
382.358	627.96
382.739	634.55
383.12	640.12
383.501	642.63
383.882	643.13
384.263	641.97
384.644	642.33
385.025	644.84
385.406	648.14
385.787	652.84
386.167	657.41
386.548	657.78
386.929	664.49
387.309	669.86
387.69	677.45
388.07	687.73
388.451	692.12
388.831	703.15
389.211	696.3
389.592	692.89
389.972	687.77
390.352	689.76
390.733	690.19
391.113	694.12
391.493	695.8
391.873	702.45
392.253	709.04
392.633	721.2
393.013	730.14
393.393	734.14
393.772	736.17
394.152	739.88
394.532	740.85
394.912	747.32
395.291	743.79
395.671	745.78
396.05	741.4
396.43	739.95
396.809	740.29
397.189	748.83
397.568	754.77
397.948	755.54
398.327	767.13
398.706	778.52
399.085	782.27
399.465	785.72
399.844	780.97
400.223	774.43
400.602	776.82
400.981	772.32
401.36	773.13
401.739	771.79
402.117	779.92
402.496	773.44
402.875	778.42
403.254	787.17
403.632	785.56
404.011	792.26
404.39	801.25
404.768	802.96
405.147	817.5
405.525	827.59
405.903	832.64
406.282	839.66
406.66	835.97
407.038	829.64
407.417	824.41
407.795	822.25
408.173	824.94
408.551	825.36
408.929	829.03
409.307	833.65
409.685	841.12
410.063	843.61
410.441	845.59
410.818	852.02
411.196	853.95
411.574	862.88
411.952	860.85
412.329	873.31
412.707	890.94
413.084	902.23
413.462	911.11
413.839	919.05
414.217	907.45
414.594	908.35
414.971	908.12
415.349	912.18
415.726	912.87
416.103	909.29
416.48	911.93
416.857	914.79
417.234	926.94
417.611	929.02
417.988	931.03
418.365	925.43
418.742	930.04
419.119	934.26
419.495	936.91
419.872	935.56
420.249	958.89
420.625	965.46
421.002	975.94
421.379	987.06
421.755	1003.67
422.131	1025.73
422.508	1030.89
422.884	1031.76
423.26	1040.12
423.637	1056.34
424.013	1043.89
424.389	1031.76
424.765	1022.75
425.141	1024.61
425.517	1020.36
425.893	1018.19
426.269	1014.8
426.645	1014.11
427.021	1029.36
427.397	1050.33
427.772	1070.54
428.148	1082.72
428.524	1079.18
428.899	1067.08
429.275	1072.94
429.651	1084.42
430.026	1105.02
430.401	1121.94
430.777	1126.49
431.152	1129.56
431.527	1124.54
431.903	1117.23
432.278	1110.3
432.653	1108.15
433.028	1110.53
433.403	1123.78
433.778	1168.05
434.153	1173.48
434.528	1179.99
434.903	1170.9
435.278	1175.47
435.653	1178.85
436.027	1179.9
436.402	1191.57
436.777	1204.94
437.151	1213.27
437.526	1217.97
437.9	1216.75
438.275	1235.19
438.649	1231.51
439.023	1244.84
439.398	1248.51
439.772	1246.42
440.146	1251.54
440.52	1261.94
440.895	1274.85
441.269	1309.08
441.643	1341.21
442.017	1353.69
442.391	1353.91
442.765	1349.74
443.138	1331.43
443.512	1344.74
443.886	1349.54
444.26	1358.43
444.633	1367.66
445.007	1368.88
445.38	1374.1
445.754	1379.23
446.127	1389.31
446.501	1385.15
446.874	1385.67
447.248	1381.58
447.621	1393.03
447.994	1387.15
448.367	1393.67
448.741	1394.63
449.114	1382.48
449.487	1402.65
449.86	1411.11
450.233	1416.13
450.606	1411.98
450.978	1410.15
451.351	1413.98
451.724	1410.26
452.097	1407.82
452.469	1419.04
452.842	1419.86
453.215	1424.39
453.587	1427.15
453.96	1434.5
454.332	1434.63
454.704	1448.17
455.077	1449.72
455.449	1467.92
455.821	1467.8
456.194	1486.23
456.566	1486.4
456.938	1503.01
457.31	1515.4
457.682	1537.94
458.054	1542.49
458.426	1565.84
458.798	1581.01
459.17	1598.58
459.541	1596.41
459.913	1587.36
460.285	1585.85
460.656	1581.82
461.028	1570.43
461.399	1592.03
461.771	1592.34
462.142	1600.35
462.514	1618.44
462.885	1626.75
463.256	1675.23
463.628	1687.05
463.999	1722.6
464.37	1753.55
464.741	1768.3
465.112	1759.93
465.483	1776.23
465.854	1792.25
466.225	1781.84
466.596	1783.51
466.967	1801.99
467.338	1799.48
467.708	1820.31
468.079	1833.19
468.45	1858.42
468.82	1872.41
469.191	1884.66
469.561	1872.08
469.932	1880.54
470.302	1866.53
470.673	1895.9
471.043	1905.71
471.413	1931.66
471.783	1962.73
472.154	1997.26
472.524	2013.67
472.894	2065.27
473.264	2105.11
473.634	2117.71
474.004	2132.68
474.374	2158.52
474.743	2166.08
475.113	2209.21
475.483	2242.69
475.853	2277.41
476.222	2296.86
476.592	2345.66
476.961	2339.03
477.331	2358.19
477.7	2375.26
478.07	2435.76
478.439	2468.98
478.808	2500.06
479.178	2505.33
479.547	2546.61
479.916	2568.22
480.285	2625.26
480.654	2645.34
481.023	2687.2
481.392	2722.37
481.761	2743.61
482.13	2783.85
482.499	2812.36
482.867	2831.92
483.236	2893.13
483.605	2956.39
483.973	2986.6
484.342	3058.35
484.71	3111.45
485.079	3151.08
485.447	3321.52
485.816	3879.06
486.184	4210.59
486.552	4297.62
486.921	3917.2
487.289	3609.94
487.657	3477.12
488.025	3425.56
488.393	3425.48
488.761	3443.57
489.129	3487.65
489.497	3516.79
489.865	3602.01
490.233	3646.67
490.6	3697.78
490.968	3699.59
491.336	3721.9
491.703	3736.68
492.071	3776.38
492.438	3790.96
492.806	3831.15
493.173	3898.23
493.541	3956.54
493.908	3958.71
494.275	3984.73
494.642	3986.15
495.01	4006.32
495.377	4002.21
495.744	4015.33
496.111	4088.31
496.478	4161.82
496.845	4193.22
497.211	4212.33
497.578	4212.43
497.945	4226.12
498.312	4273.32
498.678	4327.45
499.045	4419.69
499.412	4437.64
499.778	4460.06
500.145	4451.14
500.511	4450.24
500.878	4475.7
501.244	4553.4
501.61	4597
501.976	4605.69
502.343	4623.32
502.709	4673.19
503.075	4683.35
503.441	4699.95
503.807	4720.88
504.173	4727.57
504.539	4744.15
504.905	4759.04
505.27	4790.8
505.636	4812.59
506.002	4870.03
506.367	4884.06
506.733	4908.54
507.099	4904.62
507.464	4917.39
507.829	4926.25
508.195	4990.19
508.56	5037.09
508.926	5038.93
509.291	5034.36
509.656	5050.8
510.021	5079
510.386	5113.12
510.751	5132.9
511.116	5163.59
511.481	5188.47
511.846	5244.17
512.211	5257.7
512.576	5285.96
512.941	5289.57
513.305	5310.64
513.67	5333.36
514.035	5361.5
514.399	5403.44
514.764	5398.1
515.128	5426.52
515.493	5454.59
515.857	5496.38
516.221	5487.3
516.585	5511.8
516.95	5544.95
517.314	5557.83
517.678	5555.65
518.042	5580.55
518.406	5651.57
518.77	5652.2
519.134	5676.24
519.498	5732.01
519.862	5739.28
520.225	5715.23
520.589	5762.31
520.953	5789.04
521.316	5822.32
521.68	5843.84
522.043	5882.28
522.407	5869.68
522.77	5896.1
523.134	5952.81
523.497	5961.54
523.86	6014.56
524.223	6032.8
524.587	6059.77
524.95	6085.73
525.313	6132.06
525.676	6164.23
526.039	6185.49
526.402	6208
526.765	6256.48
527.127	6302.49
527.49	6352.14
527.853	6393.38
528.215	6382.94
528.578	6436.59
528.941	6440.63
529.303	6505.57
529.666	6527.78
530.028	6569.61
530.39	6592.45
530.753	6596.27
531.115	6650.69
531.477	6691.64
531.839	6726.13
532.201	6739.13
532.564	6796.17
532.926	6824.36
533.287	6904.26
533.649	6954.51
534.011	7010.07
534.373	7060.95
534.735	7085.89
535.097	7115.79
535.458	7193.42
535.82	7228.88
536.181	7277.54
536.543	7264.54
536.904	7253.9
537.266	7337.44
537.627	7389.7
537.988	7432.13
538.35	7481.48
538.711	7539.16
539.072	7597.7
539.433	7586.51
539.794	7664.13
540.155	7716.95
540.516	7756.06
540.877	7799.68
541.238	7866.59
541.599	7898.91
541.959	7891.39
542.32	7976.87
542.681	8041.07
543.041	8042.62
543.402	8079.91
543.762	8106.77
544.123	8124.58
544.483	8179.31
544.844	8235.65
545.204	8270.53
545.564	8290.58
545.924	8307
546.284	8305.84
546.644	8359.18
547.004	8381.54
547.364	8459.93
547.724	8542.37
548.084	8561.14
548.444	8607.96
548.804	8624.04
549.164	8644.18
549.523	8659.05
549.883	8682.13
550.242	8686.14
550.602	8720.71
550.961	8743.47
551.321	8752.94
551.68	8799.42
552.04	8823.62
552.399	8912.96
552.758	8957.23
553.117	8908.06
553.476	9022.3
553.835	9082.66
554.194	9137.97
554.553	9101.66
554.912	9117.26
555.271	9169.38
555.63	9228.78
555.989	9289.29
556.347	9280.66
556.706	9323.58
557.065	9319.81
557.423	9326.32
557.782	9380.43
558.14	9416.11
558.499	9459.61
558.857	9504.24
559.215	9474.03
559.573	9529.92
559.932	9555.51
560.29	9638.44
560.648	9663.1
561.006	9714.17
561.364	9734.85
561.722	9759.31
562.08	9835.8
562.438	9815.06
562.795	9875.28
563.153	9899.64
563.511	9923.54
563.868	9964.41
564.226	9994.64
564.583	10082.55
564.941	10067.64
565.298	10185.48
565.656	10183.71
566.013	10241.59
566.37	10242.95
566.727	10296.58
567.085	10377.75
567.442	10491.77
567.799	10606.59
568.156	10655.63
568.513	10703.29
568.87	10851.82
569.226	10951.67
569.583	11207.59
569.94	11322.15
570.297	11498.77
570.653	11437.21
571.01	11524.16
571.366	11655.39
571.723	11766.47
572.079	11823.55
572.436	11836.8
572.792	11740.06
573.148	11822.71
573.505	11978.09
573.861	12290.86
574.217	12495.57
574.573	12548.99
574.929	12531.86
575.285	12495.65
575.641	12553.28
575.997	12663.44
576.352	12718.86
576.708	12771.89
577.064	12900.28
577.42	13035.03
577.775	13361.62
578.131	13572.46
578.486	13618.83
578.842	13390.38
579.197	13230.89
579.552	13236.24
579.908	13391.71
580.263	13726.14
580.618	13716.93
580.973	13632.64
581.328	13937.84
581.683	14470.91
582.038	15058.94
582.393	15039.61
582.748	14487.89
583.103	13898.15
583.458	13384.15
583.812	13186.64
584.167	13361.84
584.522	13601.47
584.876	13980.89
585.231	14174.52
585.585	14232.19
585.939	14113.17
586.294	13874.28
586.648	13791.88
587.002	13662.6
587.356	13773.24
587.711	14134.67
588.065	14227.13
588.419	14349.29
588.773	14331.56
589.127	14053.7
589.48	13990.81
589.834	13741.92
590.188	13665.12
590.542	13715.66
590.895	13597.84
591.249	13673.01
591.603	13564.63
591.956	13610.47
592.309	13609.6
592.663	13772.38
593.016	14117.76
593.369	14444.46
593.723	14442.01
594.076	14389.33
594.429	14239.02
594.782	14300.72
595.135	14555.4
595.488	14775.53
595.841	14822.76
596.194	14520.78
596.547	14345.64
596.899	14204.09
597.252	14130.39
597.605	14204.19
597.957	14255.73
598.31	14287.55
598.662	14317.17
599.015	14407.29
599.367	14537.39
599.719	14653.16
600.072	14561.15
600.424	14568.43
600.776	14725.16
601.128	14875.35
601.48	14881.13
601.832	14976.87
602.184	14967.28
602.536	14939.82
602.888	15056.38
603.24	15201.11
603.592	15407.89
603.943	15421.11
604.295	15312.81
604.646	15109.91
604.998	14965.65
605.349	15048.19
605.701	15073.82
606.052	15218.3
606.404	15179.65
606.755	15222.24
607.106	15331.82
607.457	15341.86
607.808	15367.63
608.159	15321.94
608.51	15232.78
608.861	15270.24
609.212	15141.37
609.563	15254.76
609.914	15369.5
610.265	15397.69
610.615	15538.59
610.966	15526.15
611.316	15566.77
611.667	15644.14
612.017	15741.68
612.368	15553.89
612.718	15709.07
613.068	15678.6
613.419	15794.68
613.769	15819.57
614.119	15864.2
614.469	15989.7
614.819	15822.41
615.169	15788.32
615.519	15923.29
615.869	15870.26
616.219	15896.48
616.568	15845.05
616.918	15669.04
617.268	15824.33
617.617	15862.09
617.967	15974.16
618.316	15942.64
618.666	15872.85
619.015	15787.15
619.364	15707.26
619.714	15912.46
620.063	15977.26
620.412	16039.74
620.761	16118.38
621.11	16106.66
621.459	15946.67
621.808	15916.9
622.157	16000.14
622.506	16085.26
622.855	16279.37
623.203	16439.19
623.552	16438.97
623.901	16475.77
624.249	16288.8
624.598	16363.97
624.946	16378.78
625.295	16335.24
625.643	16367.02
625.991	16419.1
626.34	16320.99
626.688	16386.19
627.036	16487.34
627.384	16416.11
627.732	16435.14
628.08	16486.18
628.428	16468.75
628.776	16445.54
629.124	16507.73
629.471	16559.66
629.819	16643.06
630.167	16692.81
630.514	16857.59
630.862	16766.81
631.209	16732.67
631.557	16730.14
631.904	16750.84
632.251	16830.02
632.599	16718.65
632.946	16759.88
633.293	16814.19
633.64	16839.49
633.987	16937.08
634.334	17003.47
634.681	16989.89
635.028	17043
635.375	17028.06
635.722	17098.1
636.068	17134.67
636.415	17169.53
636.762	17234.35
637.108	17268.86
637.455	17271.83
637.801	17305.64
638.147	17463.46
638.494	17432.21
638.84	17569.07
639.186	17468.28
639.532	17499.15
639.878	17514.25
640.225	17544.91
640.571	17645.34
640.916	17717.81
641.262	17615.15
641.608	17558.02
641.954	17618.71
642.3	17700.11
642.645	17648.31
642.991	17680.19
643.337	17832.48
643.682	17801.89
644.028	17818.66
644.373	17811.85
644.718	17709.03
645.064	17687.1
645.409	17794.32
645.754	17920.21
646.099	17996.14
646.444	17916.4
646.789	18030.7
647.134	17978.73
647.479	17950.59
647.824	17902.41
648.169	17930.41
648.513	18106.88
648.858	18143.12
649.203	18161.56
649.547	18303.4
649.892	18239.32
650.236	18248.98
650.581	18230.47
650.925	18256.93
651.269	18253.56
651.613	18356.36
651.958	18339.44
652.302	18439.3
652.646	18393.93
652.99	18319.79
653.334	18482.16
653.678	18469
654.022	18621.1
654.365	18593.01
654.709	18619.4
655.053	18614.26
655.396	18718.59
655.74	20246.64
656.083	29216.06
656.427	38943.72
656.77	44610.82
657.114	40603.67
657.457	29179.61
657.8	22773.48
658.143	20235.56
658.486	19233.8
658.83	18934.27
659.173	18754.9
659.516	18765.5
659.858	18745.58
660.201	18665.84
660.544	18570.95
660.887	18638.32
661.229	18762.35
661.572	18678.7
661.915	18710.76
662.257	18699.35
662.6	18736.12
662.942	18733.18
663.284	18828.12
663.627	18940.53
663.969	18962.98
664.311	18967.94
664.653	18882.6
664.995	18837.11
665.337	18934.32
665.679	18792.52
666.021	18767.47
666.363	18751.98
666.705	19036.56
667.046	18926.83
667.388	18811.65
667.73	18746.64
668.071	18785.46
668.413	18900.69
668.754	18964.1
669.096	18853.84
669.437	19006.31
669.778	19007
670.119	19021.57
670.461	18930.69
670.802	18926.17
671.143	18889.99
671.484	18893.09
671.825	18877.49
672.165	18925.15
672.506	18986.93
672.847	19019.76
673.188	19027.54
673.528	19059.01
673.869	18996.17
674.21	18963.76
674.55	18974.47
674.89	18964.26
675.231	18925.6
675.571	18922.86
675.911	18851.07
676.252	18974.6
676.592	19195.53
676.932	19055.14
677.272	18900.26
677.612	18891.83
677.952	18953.14
678.292	18977.42
678.631	18949.73
678.971	18852.3
679.311	18907.34
679.651	18957.61
679.99	19091.33
680.33	19041.05
680.669	19024.21
681.009	19053.75
681.348	19098.51
681.687	19026.17
682.026	19014.33
682.366	18994.06
682.705	19057.67
683.044	19062.09
683.383	19008.69
683.722	19005.89
684.061	18882.92
684.4	19009.52
684.738	18981.52
685.077	19064.01
685.416	19047.78
685.754	19152.03
686.093	19198.61
686.431	19334.63
686.77	19070.96
687.108	19069.73
687.447	18996.32
687.785	19206.72
688.123	19212.32
688.461	19275.13
688.799	19073.89
689.137	19000.21
689.475	19003.33
689.813	18963.16
690.151	19096.17
690.489	19145.92
690.827	19138.07
691.164	19213.15
691.502	19137.17
691.84	19095.99
692.177	19208.2
692.515	19269.26
692.852	19115.46
693.189	19121
693.527	18972.29
693.864	19043.78
694.201	19237.11
694.538	19262.19
694.875	19117.44
695.212	19051.17
695.549	19052.88
695.886	18974.54
696.223	18992.86
696.56	19075.18
696.897	19042.43
697.233	19096.5
697.57	19180.37
697.906	19347.81
698.243	19345.67
698.579	19166.45
698.916	19136.36
699.252	19016.55
699.588	19057.16
699.924	19114.26
700.261	18983.17
700.597	19013.66
700.933	19011.36
701.269	19032.33
701.605	19048.01
701.941	18931.25
702.276	19108.65
702.612	18936.67
702.948	18991.28
703.283	18992.77
703.619	18920.9
703.954	19031.01
704.29	18973.34
704.625	19015.75
704.961	18963.41
705.296	19048.1
705.631	19015.71
705.966	19077.1
706.301	18997.41
706.637	19027.78
706.972	19125.41
707.306	19166
707.641	19260.41
707.976	19221.42
708.311	19117.75
708.646	19130.45
708.98	18970.99
709.315	18930.51
709.649	18896.78
709.984	18941.51
710.318	18780.84
710.653	18943.78
710.987	18954.36
711.321	18937.31
711.655	18832.86
711.989	18796.17
712.324	18867.69
712.658	18858.45
712.992	18880.27
713.325	18788.07
713.659	18799.18
713.993	18688.32
714.327	18656.86
714.66	18758.93
714.994	18819.34
715.328	18824.88
715.661	18895.91
715.994	18878.43
716.328	18699.52
716.661	18784.71
716.994	18871.51
717.328	18786.16
717.661	18705.78
717.994	18667.15
718.327	18751.97
718.66	18832.85
718.993	18793.31
719.325	18699.86
719.658	18597.21
719.991	18631.89
720.324	18680.81
720.656	18638.4
720.989	18599.85
721.321	18579.34
721.654	18505.78
721.986	18421.71
722.318	18420.38
722.651	18553.8
722.983	18487.74
723.315	18578.4
723.647	18493.66
723.979	18354.93
724.311	18392.38
724.643	18403.36
724.975	18404.82
725.307	18346.86
725.638	18335.17
725.97	18235.33
726.302	18519.05
726.633	18477.78
726.965	18489.24
727.296	18311.04
727.628	18271.21
727.959	18255.25
728.29	18298.2
728.621	18334.37
728.952	18436.94
729.284	18215.78
729.615	18176.96
729.945	18044.95
730.276	18065.67
730.607	18064.6
730.938	17937.31
731.269	18004.09
731.599	18074.35
731.93	18040.49
732.261	17766.71
732.591	17762
732.922	17838.34
733.252	17654.04
733.582	17481.52
733.912	17577.56
734.243	17659.23
734.573	17738.05
734.903	17858.88
735.233	17520.59
735.563	17576.93
735.893	17645.77
736.223	17598.38
736.552	17582.65
736.882	17487.95
737.212	17489.27
737.541	17402.28
737.871	17431.93
738.2	17456.02
738.53	17342.44
738.859	17209.76
739.188	17042.01
739.518	16969.38
739.847	17007.89
740.176	17038.6
740.505	17098.77
740.834	17042.26
741.163	16940.6
741.492	16860.26
741.821	16736.92
742.15	16694.35
742.478	16746.56
742.807	16583.08
743.136	16709.42
743.464	16676.65
743.793	16520.11
744.121	16451.81
744.449	16439.03
744.778	16423.87
745.106	16538.99
745.434	16443.16
745.762	16245.1
746.09	16199.8
746.418	16147.29
746.746	16077.06
747.074	15998.49
747.402	16071.93
747.73	15985.06
748.057	16086.92
748.385	15975.09
748.712	15878.24
749.04	15891.56
749.367	16015.62
749.695	15804.45
750.022	15875.76
750.349	15958.76
750.677	15924.57
751.004	15801.55
751.331	15741.51
751.658	15888.53
751.985	15658.93
752.312	15416.8
752.639	15501.71
752.966	15510.91
753.292	15306.69
753.619	15347.81
753.946	15485.6
754.272	15395.78
754.599	15466.4
754.925	15377.22
755.251	15257.73
755.578	15140.68
755.904	15022.63
756.23	14960.96
756.556	14922.06
756.882	14985.12
757.208	14904.17
757.534	14893.36
757.86	14933.02
758.186	14982.74
758.512	14931.6
758.838	14883.6
759.163	14848.28
759.489	14707.25
759.814	14631.39
760.14	14769.35
760.465	14666.8
760.791	14532.77
761.116	14456.42
761.441	14379.29
761.766	14498.21
762.092	14461.47
762.417	14231.72
762.742	14210.49
763.066	14176.12
763.391	14190.73
763.716	14165.46
764.041	14200.69
764.366	14165.56
764.69	13999.97
765.015	13973.22
765.339	14029.83
765.664	14110.76
765.988	13997.85
766.312	13941.84
766.637	13805.13
766.961	13700.08
767.285	13711.87
767.609	13657.6
767.933	13418.64
768.257	13518.83
768.581	13488.89
768.905	13520.98
769.229	13520.82
769.552	13570.92
769.876	13721.85
770.2	13578.6
770.523	13457.78
770.847	13250.46
771.17	13161.87
771.493	13225.22
771.817	13204.44
772.14	13073.48
772.463	13013.5
772.786	12937.4
773.109	12874.22
773.432	13035.83
773.755	13004.97
774.078	12855.08
774.401	12783.62
774.724	12774.14
775.046	12826.59
775.369	12754.1
775.692	12594.06
776.014	12435.55
776.336	12368.27
776.659	12429.26
776.981	12429.67
777.303	12287.74
777.626	12207.39
777.948	12191.59
778.27	12194.56
778.592	12152.14
778.914	12051.85
779.236	11989.27
779.557	12106.09
779.879	12157.3
780.201	12125.08
780.523	12248.6
780.844	12137.26
781.166	12170.43
781.487	12273.81
781.809	12196.89
782.13	12139.96
782.451	12077.44
782.772	12155.63
783.094	12127.75
783.415	12191.41
783.736	12185.38
784.057	12202.71
784.378	12200.72
784.698	12214.61
785.019	12356.2
785.34	12241.99
785.661	12211.5
785.981	12157.44
786.302	12182.78
786.622	12271.34
786.943	12295.34
787.263	12227.66
787.583	12196.21
787.903	12311.99
788.224	12362.25
788.544	12399.35
788.864	12248.52
789.184	12398.26
789.504	12393.76
789.824	12352.32
790.143	12338.09
790.463	12344.39
790.783	12247.09
791.102	12228.53
791.422	12327.67
791.741	12318.56
792.061	12318.54
792.38	12307.72
792.699	12281.77
793.019	12304.25
793.338	12188.09
793.657	12145.43
793.976	12254.08
794.295	12229.29
794.614	12313.91
794.933	12238.48
795.252	12295.28
795.57	12311.79
795.889	12254.81
796.208	12283.51
796.526	12035.09
796.845	11961.22
797.163	11828.73
797.482	11901.24
797.8	11915.74
798.118	11871.14
798.436	11906.38
798.754	11891.59
799.073	11755.39
799.391	11771.53
799.708	11728.06
800.026	11759.9
800.344	11788.59
800.662	11831.22
800.98	11761.08
801.297	11726.43
801.615	11689.92
801.932	11750.68
802.25	11735.55
802.567	11673.45
802.884	11578.66
803.202	11447.36
803.519	11384.9
803.836	11394.52
804.153	11406.84
804.47	11447.5
804.787	11408.5
805.104	11193.68
805.421	11136.53
805.737	11166.94
806.054	11119.19
806.371	11148.45
806.687	11167.7
807.004	11140.92
807.32	11088.47
807.637	11081.46
807.953	10938.68
808.269	10906.68
808.585	10984.66
808.902	10909.97
809.218	10862.08
809.534	10862.33
809.85	10885.02
810.165	10841.06
810.481	10810.32
810.797	10663.87
811.113	10607.39
811.428	10470.5
811.744	10438.11
812.059	10429.97
812.375	10421.91
812.69	10395.99
813.006	10341.26
813.321	10406.07
813.636	10415.32
813.951	10390.97
814.266	10343.52
814.581	10348.57
814.896	10352.67
815.211	10358.94
815.526	10288.87
815.841	10129.48
816.155	10105.07
816.47	10129.31
816.784	10202.38
817.099	10248.68
817.413	10083.99
817.728	9944.78
818.042	9869.34
818.356	9939.14
818.67	9920.11
818.985	9943.74
819.299	9828.53
819.613	9749.11
819.926	9609.58
820.24	9651.53
820.554	9665.3
820.868	9629.33
821.182	9591.02
821.495	9618.37
821.809	9469.93
822.122	9390.69
822.436	9333.83
822.749	9409.06
823.062	9425.78
823.376	9389.87
823.689	9261.98
824.002	9227.62
824.315	9214.07
824.628	9274.08
824.941	9299.28
825.254	9247.91
825.566	9173.65
825.879	9162.76
826.192	9076.43
826.504	9050.4
826.817	9050.49
827.129	9097.5
827.442	8992.04
827.754	9012.38
828.066	8996.23
828.379	8849.98
828.691	8826.65
829.003	8784.81
829.315	8806.77
829.627	8765.84
829.939	8730.57
830.251	8681.75
830.562	8560.88
830.874	8568.41
831.186	8494.21
831.497	8527.58
831.809	8484.64
832.12	8489.63
832.432	8418.35
832.743	8429.77
833.054	8354.41
833.365	8328.19
833.676	8372.3
833.988	8424.27
834.299	8349.18
834.61	8354.55
834.92	8280.38
835.231	8212.09
835.542	8150.49
835.853	8070.85
836.163	8084.16
836.474	8102.54
836.784	8068.74
837.095	8022.7
837.405	7942.17
837.715	7984.63
838.026	7998.51
838.336	7975.28
838.646	7916.37
838.956	7822.19
839.266	7806.96
839.576	7729.7
839.886	7699.84
840.195	7699.77
840.505	7600.8
840.815	7621.95
841.124	7678.13
841.434	7680.25
841.743	7609.2
842.053	7579.77
842.362	7531.6
842.671	7509.95
842.981	7562.97
843.29	7485.46
843.599	7453.52
843.908	7415.27
844.217	7423.06
844.526	7429.22
844.835	7402.78
845.143	7315.75
845.452	7284.23
845.761	7239.11
846.069	7115.11
846.378	7182.74
846.686	7072.24
846.995	7003.12
847.303	7003.42
847.611	7079.88
847.919	7046.66
848.227	6959.62
848.535	6803.22
848.843	6759.55
849.151	6772.36
849.459	6811.83
849.767	6832.87
850.075	6860.73
850.382	6800.73
850.69	6706.31
850.998	6638.12
851.305	6607.68
851.612	6648.08
851.92	6653.14
852.227	6668.73
852.534	6636.18
852.841	6551.84
853.148	6492.75
853.455	6545.24
853.762	6522.76
854.069	6551.25
854.376	6538.25
854.683	6505.26
854.99	6427.23
855.296	6374.48
855.603	6289.52
855.909	6215.55
856.216	6187.7
856.522	6202.02
856.828	6200.07
857.135	6204.21
857.441	6159.75
857.747	6055.57
858.053	6022.89
858.359	5937.75
858.665	5966.71
858.971	5953.75
859.276	5929.07
859.582	5878.69
859.888	5880.25
860.193	5833.59
860.499	5775.74
860.804	5738.35
861.11	5725.97
861.415	5731.78
861.72	5731.2
862.026	5673.89
862.331	5647.58
862.636	5576.33
862.941	5528.13
863.246	5483.65
863.551	5513.45
863.855	5498.14
864.16	5485.13
864.465	5459.98
864.769	5410.37
865.074	5349.11
865.378	5327.4
865.683	5315.97
865.987	5336.37
866.291	5311.71
866.596	5314.73
866.9	5289.35
867.204	5241.51
867.508	5188.03
867.812	5192.64
868.116	5203.23
868.42	5180.6
868.723	5156.16
869.027	5135.91
869.331	5125.05
869.634	5095.95
869.938	5024.68
870.241	4962.99
870.544	4907.97
870.848	4899.07
871.151	4890.34
871.454	4905.88
871.757	4860.56
872.06	4805.89
872.363	4753.15
872.666	4730.04
872.969	4673.08
873.272	4670.79
873.574	4665.61
873.877	4666.26
874.18	4662.53
874.482	4655.93
874.785	4607.63
875.087	4511.59
875.389	4481.16
875.692	4474.16
875.994	4529.34
876.296	4540.27
876.598	4529.13
876.9	4470.85
877.202	4419.97
877.504	4392.24
877.805	4358.69
878.107	4337.82
878.409	4307.74
878.71	4322.79
879.012	4308.87
879.313	4250.72
879.615	4222.17
879.916	4222.43
880.217	4223.01
880.518	4194.77
880.82	4170.03
881.121	4140.34
881.422	4153.17
881.723	4163.12
882.023	4133.36
882.324	4083.82
882.625	4010.58
882.926	3974.17
883.226	3992.99
883.527	3958.67
883.827	3965.41
884.128	3969.08
884.428	3972.72
884.728	3928.64
885.028	3864.15
885.328	3815.79
885.629	3779.3
885.929	3783.74
886.228	3772.16
886.528	3761.24
886.828	3760.79
887.128	3747.23
887.427	3696.18
887.727	3633.07
888.027	3585.07
888.326	3574.14
888.625	3584.06
888.925	3554.72
889.224	3571.91
889.523	3570.19
889.822	3547.87
890.121	3517.3
890.42	3477.61
890.719	3479.34
891.018	3450.59
891.317	3472.5
891.616	3453.29
891.914	3413.25
892.213	3390.73
892.512	3365.84
892.81	3329.39
893.108	3308.74
893.407	3319.54
893.705	3346.37
894.003	3360.2
894.301	3368.88
894.599	3358.12
894.897	3336.83
895.195	3309.82
895.493	3270.61
895.791	3260.83
896.089	3242.27
896.386	3231.69
896.684	3242.51
896.981	3250.45
897.279	3272.19
897.576	3311.24
897.874	3274
898.171	3254.35
898.468	3234.32
898.765	3226.72
899.062	3249.18
899.359	3264.06
899.656	3276.8
899.953	3275.84
900.25	3274.05
900.547	3267.28
900.843	3252.29
901.14	3236.1
901.436	3242.5
901.733	3256.28
902.029	3257.99
902.325	3259.4
902.622	3227.35
902.918	3244.22
903.214	3240.44
903.51	3194.7
903.806	3175.67
904.102	3147.74
904.398	3138.88
904.694	3147.25
904.989	3191.11
905.285	3179.29
905.581	3159.88
905.876	3164.38
906.171	3141.47
906.467	3117.32
906.762	3119.4
907.057	3123.44
907.353	3136.1
907.648	3113.32
907.943	3111.61
908.238	3102.4
908.533	3059.28
908.827	3028.9
909.122	3009.93
909.417	3014.13
909.711	3037.05
910.006	3044.25
910.301	3029.95
910.595	3051.34
910.889	3077.58
911.184	3036.39
911.478	3024.71
911.772	3024.55
912.066	2990.6
912.36	2964.42
912.654	2948.12
912.948	2951.96
913.242	2988.66
913.536	2975.37
913.829	2965.41
914.123	2934.82
914.416	2874.23
914.71	2838.67
915.003	2827.65
915.297	2810.92
915.59	2805.09
915.883	2813.98
916.176	2833.12
916.469	2817
916.762	2791.69
917.055	2760.64
917.348	2738.32
917.641	2736.98
917.934	2734.24
918.226	2736.33
918.519	2745.9
918.811	2751.47
919.104	2736.22
919.396	2695.67
919.689	2654
919.981	2627.32
920.273	2606.27
920.565	2601.56
920.857	2578.4
921.149	2566.77
921.441	2561.86
921.733	2551.9
922.025	2527.87
922.316	2488.46
922.608	2471.69
922.9	2447.08
923.191	2458.95
923.483	2481.56
923.774	2462.69
924.065	2454.04
924.357	2443
924.648	2427.17
924.939	2411.52
925.23	2384.56
925.521	2362.81
925.812	2340.19
926.102	2310.54
926.393	2296.9
926.684	2298.16
926.975	2295.87
927.265	2289.44
927.556	2290.77
927.846	2264.84
928.136	2240.41
928.427	2222.17
928.717	2203.82
929.007	2182.76
929.297	2150.94
929.587	2137.32
929.877	2135.21
930.167	2139.47
930.457	2130.72
930.746	2100.96
931.036	2081.71
931.325	2052.49
931.615	2030.34
931.904	2022.84
932.194	1997.92
932.483	1994.14
932.772	1991.87
933.062	1984.75
933.351	1974.82
933.64	1948.97
933.929	1941.81
934.218	1929.64
934.506	1913.32
934.795	1894.53
935.084	1881.73
935.372	1867.22
935.661	1855.54
935.949	1852.91
936.238	1851.95
936.526	1825.47
936.815	1812.53
937.103	1792.41
937.391	1775.75
937.679	1762.65
937.967	1752.39
938.255	1737.11
938.543	1735.8
938.831	1726.89
939.118	1721.32
939.406	1710.65
939.693	1680.4
939.981	1657.5
940.268	1642.72
940.556	1626.57
940.843	1622.54
941.13	1627.99
941.418	1632.71
941.705	1629.2
941.992	1619.42
942.279	1601.83
942.566	1583.03
942.852	1564.93
943.139	1543.37
943.426	1525.06
943.712	1512.24
943.999	1503.29
944.285	1498.14
944.572	1488.87
944.858	1486.92
945.144	1486.65
945.431	1472.89
945.717	1456.3
946.003	1440.13
946.289	1421.9
946.575	1405.68
946.861	1400.96
947.146	1398.13
947.432	1399.28
947.718	1391.1
948.003	1391.63
948.289	1391.91
948.574	1387.05
948.86	1376.71
949.145	1362.23
949.43	1338.26
949.715	1321.17
950	1300.73
950.285	1298.83
950.57	1296.68
950.855	1291.68
951.14	1288.68
951.425	1287.43
951.709	1280.78
951.994	1270.3
952.278	1270.33
952.563	1259.97
952.847	1244.2
953.132	1232.21
953.416	1222.05
953.7	1207.57
953.984	1201.35
954.268	1196.43
954.552	1195.33
954.836	1188.94
955.12	1178.72
955.404	1167.2
955.687	1150.47
955.971	1135.91
956.254	1125.15
956.538	1117.89
956.821	1118.97
957.105	1117.26
957.388	1112.99
957.671	1101.97
957.954	1093.82
958.237	1080.55
958.52	1067.27
958.803	1058.19
959.086	1048.15
959.369	1041.7
959.652	1036.54
959.934	1032.33
960.217	1030.52
960.499	1030.31
960.782	1022.11
961.064	1017.16
961.346	1013.14
961.629	1002.47
961.911	986.9
962.193	975.18
962.475	961.6
962.757	951.46
963.039	947.52
963.32	951.1
963.602	948.62
963.884	945.11
964.165	938.76
964.447	935.87
964.728	919.73
965.01	907.98
965.291	895.38
965.572	885.84
965.853	882.95
966.134	877.15
966.415	876.14
966.696	874.34
966.977	869.33
967.258	870.19
967.539	869.9
967.819	866.85
968.1	860.95
968.38	848.85
968.661	841.14
968.941	833.34
969.222	825.56
969.502	825.1
969.782	820.71
970.062	814.15
970.342	808.37
970.622	804.71
970.902	803.23
971.182	793.16
971.462	785.4
971.741	775.31
972.021	766.23
972.3	759.43
972.58	752.8
972.859	747.39
973.138	748.97
973.418	746.44
973.697	745.37
973.976	743.96
974.255	738.09
974.534	730.69
974.813	721.35
975.092	715.78
975.37	706.82
975.649	706.7
975.928	703.8
976.206	701.37
976.485	698.55
976.763	695.5
977.041	688.95
977.32	683.95
977.598	680.54
977.876	675.52
978.154	668.6
978.432	663.52
978.71	655.5
978.988	652.23
979.265	647.38
979.543	647.01
979.821	640.09
980.098	636.68
980.376	634.2
980.653	628.83
980.93	625.91
981.208	620.64
981.485	614.12
981.762	608.66
982.039	605.23
982.316	598.75
982.593	596.68
982.87	597.35
983.146	595.29
983.423	594.21
983.7	591.91
983.976	587.78
984.253	581.48
984.529	577.79
984.805	571.97
985.082	566.91
985.358	564.21
985.634	560.75
985.91	559.19
986.186	556.81
986.462	556.06
986.738	551.65
987.013	552.62
987.289	550.87
987.565	547.91
987.84	541.71
988.116	539.68
988.391	536.19
988.666	531.78
988.942	527.54
989.217	526.04
989.492	522.92
989.767	521.77
990.042	518.11
990.317	514.09
990.592	514.88
990.866	508.34
991.141	506.8
991.416	503.88
991.69	501.28
991.964	498.23
992.239	496.59
992.513	495.63
992.787	493.68
993.062	494.05
993.336	490.29
993.61	487.15
993.884	484.45
994.158	483.76
994.431	479.02
994.705	477.46
994.979	476.12
995.252	472.27
995.526	469.84
995.799	466.77
996.073	466.04
996.346	463.55
996.619	461.26
996.892	457.13
997.165	456.03
997.438	454.46
997.711	451.62
997.984	448.75
998.257	448.83
998.53	444.88
998.802	442.19
999.075	443.16
999.347	442.19
999.62	437.01
999.892	436.22
1000.165	437.23
1000.437	436.48
1000.709	435.43
1000.981	434.79
1001.253	429.79
1001.525	429.91
1001.797	428.22
1002.068	424.64
1002.34	423.6
1002.612	421.8
1002.883	420.56
1003.155	418.54
1003.426	416.95
1003.698	417.71
1003.969	417.26
1004.24	417.68
1004.511	412.98
1004.782	412.51
1005.053	412.23
1005.324	408.4
1005.595	406.96
1005.866	408.81
1006.136	406.43
1006.407	404.11
1006.678	401.66
1006.948	402.47
1007.218	400.78
1007.489	399.33
1007.759	398.27
1008.029	397.7
1008.299	398.74
1008.569	398.34
1008.839	394.22
1009.109	394.01
1009.379	394.09
1009.649	390.42
1009.918	390.23
1010.188	389.83
1010.458	389.21
1010.727	386.71
1010.996	385.96
1011.266	387.12
1011.535	386.33
1011.804	383.73
1012.073	386.84
1012.342	382.44
1012.611	383.04
1012.88	382.83
1013.149	380.47
1013.417	381.44
1013.686	379.04
1013.955	381.14
1014.223	378.23
1014.492	376.86
1014.76	375.64
1015.028	376.78
1015.296	374.77
1015.565	375.5
1015.833	375.35
1016.101	372.18
1016.368	373.4
1016.636	374.54
1016.904	372.06
1017.172	372.05
1017.439	370.5
1017.707	371.59
1017.974	370.63
1018.242	370.45
1018.509	370.29
1018.776	369.51
1019.044	369.22
1019.311	366.44
1019.578	365.13
1019.845	366.63
1020.112	366.17
1020.378	366.17
1020.645	366.17
