Data from 190524_Kr_41K_film_FLMS138901_12-32-43-338.txt Node
Date: Thu May 30 12:32:43 EDT 2019
User: pSAM
Spectrometer: FLMS13890
Trigger mode: 0
Integration Time (sec): 4.000000E-3
Scans to average: 1000
Electric dark correction enabled: true
Nonlinearity correction enabled: false
Boxcar width: 0
XAxis mode: Wavelengths
Number of Pixels in Spectrum: 2048
>>>>>Begin Spectral Data<<<<<
342.097	-58.59
342.483	-58.59
342.868	-58.59
343.254	-97.93
343.639	-99.99
344.025	-100.77
344.41	-97.16
344.796	-90.2
345.181	-77.35
345.567	-66.87
345.952	-51
346.337	-37.2
346.722	-18.5
347.107	0.43
347.493	18.43
347.878	36.31
348.263	58.06
348.648	76.33
349.033	97.87
349.418	118.05
349.802	133.56
350.187	152.14
350.572	169.49
350.957	211.4
351.342	289.84
351.726	312.2
352.111	325.19
352.495	340.41
352.88	353.59
353.264	366.97
353.649	379.23
354.033	388.03
354.418	397.34
354.802	405.77
355.186	414.95
355.57	421.95
355.955	428.22
356.339	434.2
356.723	437.32
357.107	440.91
357.491	444.29
357.875	447.74
358.259	448.12
358.643	450.51
359.026	453.75
359.41	453.31
359.794	453.7
360.178	454.75
360.561	453.29
360.945	452.7
361.329	452.18
361.712	454.24
362.096	452.55
362.479	450.09
362.862	450.81
363.246	450.1
363.629	449.01
364.012	446.79
364.396	448.21
364.779	449.19
365.162	447.18
365.545	447.34
365.928	444.77
366.311	447.5
366.694	447.49
367.077	450.12
367.46	448.67
367.843	449.03
368.226	447.39
368.608	449.78
368.991	450.58
369.374	452.37
369.756	448.78
370.139	450.62
370.521	449.47
370.904	451.65
371.286	453.64
371.669	452.23
372.051	454.53
372.433	453.63
372.816	455.97
373.198	458.42
373.58	461.43
373.962	462.01
374.344	461.92
374.726	465.82
375.108	466.12
375.49	468.28
375.872	470.25
376.254	471.29
376.636	469.87
377.018	471.82
377.399	475.36
377.781	475.47
378.163	473.77
378.544	473.52
378.926	475.61
379.307	480.88
379.689	485.44
380.07	486.95
380.452	493.89
380.833	492.43
381.214	491.94
381.596	494.01
381.977	497.2
382.358	501.72
382.739	505.96
383.12	512.46
383.501	511.33
383.882	507.57
384.263	508.6
384.644	510.98
385.025	512.59
385.406	517.06
385.787	516.58
386.167	520.63
386.548	521.23
386.929	524.56
387.309	529.62
387.69	534.61
388.07	539.79
388.451	541.39
388.831	546.36
389.211	541.21
389.592	538
389.972	538.13
390.352	540.46
390.733	543.5
391.113	544.22
391.493	545.46
391.873	554.96
392.253	557.12
392.633	566.74
393.013	567.79
393.393	571.16
393.772	569.53
394.152	572.34
394.532	574.72
394.912	575.61
395.291	574.61
395.671	578.71
396.05	574.65
396.43	575.2
396.809	577.58
397.189	585.13
397.568	587.03
397.948	593.33
398.327	598.76
398.706	601.39
399.085	604.53
399.465	601.96
399.844	600.86
400.223	596.76
400.602	597.21
400.981	600.16
401.36	600.04
401.739	599.42
402.117	604.9
402.496	602.9
402.875	604.32
403.254	610.44
403.632	608.82
404.011	617.41
404.39	621.08
404.768	624.61
405.147	632.21
405.525	640.19
405.903	641.8
406.282	643.44
406.66	641.75
407.038	635.71
407.417	634.61
407.795	634.17
408.173	640.05
408.551	640.31
408.929	643.11
409.307	646.76
409.685	652.4
410.063	656.05
410.441	655.77
410.818	657.86
411.196	660.09
411.574	666.28
411.952	669.55
412.329	680.86
412.707	688.27
413.084	696
413.462	695.48
413.839	700.26
414.217	691.23
414.594	696.17
414.971	698.27
415.349	700.47
415.726	702.98
416.103	699.42
416.48	700.83
416.857	704.63
417.234	710.65
417.611	715.41
417.988	717.68
418.365	711.13
418.742	715.89
419.119	720.64
419.495	723.2
419.872	726
420.249	743.89
420.625	746.7
421.002	756.03
421.379	763.76
421.755	773.67
422.131	782.68
422.508	785.23
422.884	787.97
423.26	791.69
423.637	799.69
424.013	787.33
424.389	781.61
424.765	777.58
425.141	784.79
425.517	777.96
425.893	774.88
426.269	778.12
426.645	784.8
427.021	806.42
427.397	814.47
427.772	822.25
428.148	816.7
428.524	816.01
428.899	811.32
429.275	824.25
429.651	837.52
430.026	848.22
430.401	854.08
430.777	853.64
431.152	851.61
431.527	843.43
431.903	847.71
432.278	842.69
432.653	847.7
433.028	853
433.403	875.62
433.778	898.22
434.153	896.28
434.528	884.14
434.903	883.53
435.278	894.01
435.653	900.64
436.027	901.24
436.402	907.4
436.777	913.27
437.151	916.83
437.526	925.54
437.9	928.27
438.275	941.97
438.649	938.51
439.023	947.74
439.398	945.37
439.772	944.29
440.146	945.52
440.52	959.17
440.895	979.92
441.269	1008.2
441.643	1021.32
442.017	1017.31
442.391	1013.6
442.765	1013.63
443.138	1009.38
443.512	1023.28
443.886	1027.4
444.26	1030.37
444.633	1036.65
445.007	1036.12
445.38	1038.78
445.754	1041.79
446.127	1050.8
446.501	1050.1
446.874	1045.71
447.248	1040.61
447.621	1049.1
447.994	1048.47
448.367	1054.05
448.741	1058.09
449.114	1053.3
449.487	1064.51
449.86	1071.69
450.233	1069.65
450.606	1068.26
450.978	1066.67
451.351	1073.6
451.724	1073.54
452.097	1072.32
452.469	1079.84
452.842	1080.25
453.215	1083.89
453.587	1085.3
453.96	1094.25
454.332	1092.14
454.704	1103.8
455.077	1114.03
455.449	1124.35
455.821	1120.81
456.194	1133.18
456.566	1134.96
456.938	1148.13
457.31	1157.89
457.682	1177.96
458.054	1178.01
458.426	1194.52
458.798	1200.7
459.17	1204.22
459.541	1207.9
459.913	1199.04
460.285	1193.95
460.656	1199.65
461.028	1199.79
461.399	1211.15
461.771	1213.57
462.142	1225.32
462.514	1238.99
462.885	1253.38
463.256	1283.32
463.628	1301.13
463.999	1311.08
464.37	1341.42
464.741	1347.87
465.112	1340.17
465.483	1348.33
465.854	1357.06
466.225	1349.83
466.596	1342.83
466.967	1363.53
467.338	1365.84
467.708	1392.29
468.079	1401.11
468.45	1402.92
468.82	1401.85
469.191	1404.72
469.561	1410.68
469.932	1426.31
470.302	1422.75
470.673	1446.67
471.043	1454.67
471.413	1471.26
471.783	1496.94
472.154	1520.61
472.524	1539.83
472.894	1583.58
473.264	1597.75
473.634	1605.12
474.004	1610.06
474.374	1639.83
474.743	1648.6
475.113	1684.5
475.483	1698.3
475.853	1728.09
476.222	1746.5
476.592	1789.19
476.961	1779.35
477.331	1790.15
477.7	1813.86
478.07	1864.5
478.439	1867.13
478.808	1886.2
479.178	1906.05
479.547	1949.32
479.916	1969.36
480.285	2007.42
480.654	2021.21
481.023	2047.86
481.392	2066.77
481.761	2088.61
482.13	2113.52
482.499	2144.85
482.867	2169.63
483.236	2220.46
483.605	2266.17
483.973	2305.42
484.342	2359.74
484.71	2392.49
485.079	2538.14
485.447	2884.44
485.816	3171.12
486.184	3250.2
486.552	2944.28
486.921	2716.96
487.289	2599.93
487.657	2595.52
488.025	2596.81
488.393	2604.34
488.761	2615.77
489.129	2666.99
489.497	2687.78
489.865	2750.95
490.233	2768.2
490.6	2803.78
490.968	2809
491.336	2832.22
491.703	2846.35
492.071	2872.17
492.438	2907.85
492.806	2935.26
493.173	2985.19
493.541	3005.14
493.908	3003.55
494.275	3013.69
494.642	3032.07
495.01	3046.17
495.377	3067.57
495.744	3094.02
496.111	3160.79
496.478	3204.48
496.845	3201.25
497.211	3197.26
497.578	3224.48
497.945	3251.35
498.312	3314.8
498.678	3358.04
499.045	3398.32
499.412	3387.09
499.778	3396.25
500.145	3403.17
500.511	3417.47
500.878	3466.93
501.244	3518.48
501.61	3544.84
501.976	3530.66
502.343	3555.77
502.709	3598.18
503.075	3600.19
503.441	3607.47
503.807	3620.99
504.173	3619.46
504.539	3639.08
504.905	3673.82
505.27	3707.18
505.636	3715.68
506.002	3756.61
506.367	3762.64
506.733	3769.02
507.099	3767.67
507.464	3808.22
507.829	3833.71
508.195	3890.23
508.56	3896.06
508.926	3889.7
509.291	3883.33
509.656	3914.58
510.021	3933.69
510.386	3963.18
510.751	3987.62
511.116	4022.94
511.481	4047.19
511.846	4071.78
512.211	4078.88
512.576	4096.67
512.941	4104.79
513.305	4117.78
513.67	4148.62
514.035	4166.28
514.399	4185.95
514.764	4190.57
515.128	4204.57
515.493	4222.36
515.857	4241.01
516.221	4240.47
516.585	4276.01
516.95	4302.06
517.314	4318.32
517.678	4328.55
518.042	4357.9
518.406	4410.86
518.77	4426.1
519.134	4464.57
519.498	4503.15
519.862	4506.39
520.225	4489.33
520.589	4519.63
520.953	4559.76
521.316	4586.34
521.68	4598.19
522.043	4615.89
522.407	4611.24
522.77	4643.31
523.134	4699.73
523.497	4688.97
523.86	4732.97
524.223	4769.26
524.587	4797.62
524.95	4812.9
525.313	4842.87
525.676	4873.6
526.039	4898.69
526.402	4912.66
526.765	4956.01
527.127	4976.04
527.49	4994.89
527.853	5013.22
528.215	5013.19
528.578	5071.78
528.941	5086.3
529.303	5115.78
529.666	5151.73
530.028	5171.6
530.39	5200.11
530.753	5225.46
531.115	5273.98
531.477	5314.47
531.839	5346.76
532.201	5363.9
532.564	5421.37
532.926	5460.16
533.287	5542.65
533.649	5571.13
534.011	5594.36
534.373	5628.67
534.735	5653.62
535.097	5678.47
535.458	5708.73
535.82	5755.41
536.181	5780.3
536.543	5803.65
536.904	5793.78
537.266	5891.47
537.627	5949.26
537.988	5966.45
538.35	5997.35
538.711	6026.75
539.072	6077.71
539.433	6066.13
539.794	6129.95
540.155	6156.34
540.516	6180.35
540.877	6180.36
541.238	6208.44
541.599	6263.48
541.959	6298.08
542.32	6381.29
542.681	6418.53
543.041	6441.8
543.402	6476.49
543.762	6514.99
544.123	6491.3
544.483	6549.52
544.844	6580.41
545.204	6611.93
545.564	6609.81
545.924	6622.49
546.284	6654.09
546.644	6693.32
547.004	6757.54
547.364	6847.41
547.724	6893.04
548.084	6868.32
548.444	6897.21
548.804	6888.59
549.164	6934.57
549.523	6967.75
549.883	6968.69
550.242	6982.82
550.602	7015.77
550.961	7032.96
551.321	7034.12
551.68	7101.98
552.04	7140.51
552.399	7218.81
552.758	7234.15
553.117	7206.26
553.476	7297.93
553.835	7341.2
554.194	7355.47
554.553	7340.23
554.912	7361.3
555.271	7382.3
555.63	7438.54
555.989	7489.86
556.347	7510.12
556.706	7504.33
557.065	7503.76
557.423	7578.14
557.782	7594.99
558.14	7597.15
558.499	7619.67
558.857	7647.03
559.215	7652.32
559.573	7740.01
559.932	7803.9
560.29	7853.29
560.648	7864.87
561.006	7930.26
561.364	7940.84
561.722	7973.99
562.08	8023.64
562.438	8015.73
562.795	8073.38
563.153	8105.38
563.511	8132.23
563.868	8213.88
564.226	8240.75
564.583	8283.43
564.941	8247.71
565.298	8314.27
565.656	8290.59
566.013	8322.07
566.37	8378.66
566.727	8454
567.085	8585.7
567.442	8664.92
567.799	8784.98
568.156	8835.27
568.513	8955.84
568.87	9040.6
569.226	9218.07
569.583	9331.27
569.94	9359.44
570.297	9366.6
570.653	9372.9
571.01	9498.02
571.366	9728.62
571.723	9759.13
572.079	9682.59
572.436	9572.98
572.792	9652.08
573.148	9909.83
573.505	10100.62
573.861	10332.61
574.217	10290.18
574.573	10349.2
574.929	10293.79
575.285	10335.48
575.641	10348.58
575.997	10474.76
576.352	10558.86
576.708	10602.96
577.064	10817.38
577.42	11112.27
577.775	11283.79
578.131	11219.91
578.486	11017.66
578.842	10833.28
579.197	11051.18
579.552	11175.86
579.908	11469.3
580.263	11481.55
580.618	11345.49
580.973	11690.76
581.328	12267.42
581.683	12743.08
582.038	12524.46
582.393	11908.58
582.748	11426.32
583.103	11071.08
583.458	10996.97
583.812	11215.14
584.167	11443.13
584.522	11751.48
584.876	11859.73
585.231	11990.27
585.585	11935.09
585.939	11668.42
586.294	11522.31
586.648	11486.78
587.002	11584.7
587.356	11873.64
587.711	12041.32
588.065	12103.95
588.419	12071.52
588.773	11875.68
589.127	11588.67
589.48	11505.24
589.834	11417.33
590.188	11451.15
590.542	11438.94
590.895	11421.63
591.249	11522.01
591.603	11408.56
591.956	11411.74
592.309	11674.27
592.663	11912
593.016	12229.69
593.369	12212.76
593.723	12063.01
594.076	11964.82
594.429	12090.81
594.782	12335.67
595.135	12502.39
595.488	12390.95
595.841	12180.6
596.194	12072.83
596.547	11992.05
596.899	12023.01
597.252	12144.57
597.605	12206.75
597.957	12159.02
598.31	12189.18
598.662	12352.08
599.015	12409.73
599.367	12433.75
599.719	12365.19
600.072	12466.95
600.424	12567.2
600.776	12689.79
601.128	12674.44
601.48	12715.32
601.832	12664.44
602.184	12801.76
602.536	12859.94
602.888	13097.51
603.24	13263.19
603.592	13210.25
603.943	13007.65
604.295	12823.61
604.646	12760.13
604.998	12870.87
605.349	12924.3
605.701	12974.37
606.052	12953.25
606.404	12930.2
606.755	12968.22
607.106	13035.8
607.457	13001.51
607.808	13100.3
608.159	13101.29
608.51	13107.65
608.861	13100.23
609.212	13048.49
609.563	13246.16
609.914	13381.02
610.265	13349.96
610.615	13417.45
610.966	13373.45
611.316	13497.24
611.667	13551.18
612.017	13567.69
612.368	13413.56
612.718	13623.16
613.068	13693.64
613.419	13758.39
613.769	13809.35
614.119	13850.58
614.469	13813.24
614.819	13688.48
615.169	13696.02
615.519	13784.5
615.869	13764.23
616.219	13662.84
616.568	13582.17
616.918	13591.24
617.268	13718.06
617.617	13749.8
617.967	13743.33
618.316	13661.97
618.666	13620.9
619.015	13718.11
619.364	13893.25
619.714	14148.14
620.063	14188
620.412	14138.91
620.761	13985.37
621.11	13990.78
621.459	13911.44
621.808	14073.39
622.157	14201.72
622.506	14206.44
622.855	14268.8
623.203	14271.93
623.552	14333.86
623.901	14334.88
624.249	14346.28
624.598	14396.4
624.946	14335.82
625.295	14307.1
625.643	14301.08
625.991	14431.49
626.34	14418.62
626.688	14475.56
627.036	14578.97
627.384	14582.15
627.732	14667.72
628.08	14612.86
628.428	14501.93
628.776	14561.98
629.124	14637.39
629.471	14622.24
629.819	14650.85
630.167	14617
630.514	14614.91
630.862	14516.09
631.209	14595.02
631.557	14666.49
631.904	14680.43
632.251	14770.66
632.599	14679.75
632.946	14759.95
633.293	14809.85
633.64	14802.42
633.987	14889.18
634.334	14880.97
634.681	14892.22
635.028	15041.1
635.375	15029.84
635.722	15080.68
636.068	15181.21
636.415	15288.59
636.762	15327.87
637.108	15352.28
637.455	15319.91
637.801	15396.82
638.147	15496.88
638.494	15432.19
638.84	15574.8
639.186	15401.2
639.532	15405.18
639.878	15485.42
640.225	15554.04
640.571	15577.29
640.916	15573.71
641.262	15576.82
641.608	15522.62
641.954	15616.86
642.3	15671.52
642.645	15649.34
642.991	15703.14
643.337	15725.41
643.682	15715.77
644.028	15764.89
644.373	15815.86
644.718	15826.98
645.064	15829.75
645.409	15923.01
645.754	16070.66
646.099	16159
646.444	16077.45
646.789	16145
647.134	16099.96
647.479	16085.22
647.824	16107.52
648.169	16127.08
648.513	16238.13
648.858	16232.69
649.203	16353.35
649.547	16397.04
649.892	16398.97
650.236	16448.99
650.581	16515.38
650.925	16447.93
651.269	16432.58
651.613	16512.27
651.958	16476.11
652.302	16499.14
652.646	16463.18
652.99	16373.17
653.334	16573.58
653.678	16491.37
654.022	16566.93
654.365	16573.7
654.709	16686.06
655.053	16810.72
655.396	18745.04
655.74	31584.09
656.083	40695.01
656.427	42511.27
656.77	32396.64
657.114	21854.25
657.457	18612.48
657.8	17534.16
658.143	17175.08
658.486	17073.52
658.83	17117.69
659.173	17039.34
659.516	17089.69
659.858	17099.16
660.201	17093.96
660.544	17075.91
660.887	17045.63
661.229	17022.96
661.572	16875.72
661.915	16892.08
662.257	16853.74
662.6	16969.11
662.942	16948.13
663.284	16842.86
663.627	16883.5
663.969	16917.09
664.311	16947.87
664.653	16868.81
664.995	16959.24
665.337	17029.91
665.679	17016.32
666.021	17070.6
666.363	17010.04
666.705	17107.51
667.046	17052.1
667.388	16987.37
667.73	17032.54
668.071	17095.02
668.413	17060.23
668.754	17129.4
669.096	17059.06
669.437	17232.19
669.778	17256.55
670.119	17165.8
670.461	17060.88
670.802	17188.82
671.143	17155.92
671.484	17170.27
671.825	17193.97
672.165	17191.55
672.506	17170.57
672.847	17135.2
673.188	17151.94
673.528	17094.11
673.869	17090.81
674.21	17167.57
674.55	17168.44
674.89	17159.22
675.231	17243.91
675.571	17344.45
675.911	17325.85
676.252	17417.06
676.592	17479.31
676.932	17370.36
677.272	17258.45
677.612	17299.66
677.952	17356.24
678.292	17362.23
678.631	17323.65
678.971	17303.11
679.311	17499.73
679.651	17501.52
679.99	17471.25
680.33	17450.65
680.669	17433.03
681.009	17464.64
681.348	17468.07
681.687	17521.16
682.026	17533.9
682.366	17378.26
682.705	17350.61
683.044	17312.42
683.383	17263.72
683.722	17368.56
684.061	17352.21
684.4	17480.59
684.738	17535.23
685.077	17649.11
685.416	17680.75
685.754	17623.77
686.093	17585.06
686.431	17686.6
686.77	17592.14
687.108	17654.99
687.447	17676
687.785	17834.49
688.123	17833.33
688.461	17826.51
688.799	17732.09
689.137	17712.49
689.475	17743.1
689.813	17556.9
690.151	17675.83
690.489	17673.53
690.827	17632.05
691.164	17747.63
691.502	17764.2
691.84	17678.39
692.177	17825.22
692.515	17890.81
692.852	17691.94
693.189	17756.16
693.527	17723.63
693.864	17700.23
694.201	17651.03
694.538	17569.41
694.875	17583.55
695.212	17607.1
695.549	17620.99
695.886	17443.57
696.223	17338.56
696.56	17467.04
696.897	17500.15
697.233	17658.83
697.57	17719.03
697.906	17819.97
698.243	17871.29
698.579	17746.9
698.916	17866.12
699.252	17818.27
699.588	17878.71
699.924	17964.79
700.261	17883.51
700.597	17838.09
700.933	17873.08
701.269	17712.33
701.605	17795.47
701.941	17678.39
702.276	17656.69
702.612	17688.06
702.948	17785.91
703.283	17726.77
703.619	17700.99
703.954	17729.61
704.29	17733.47
704.625	17781.34
704.961	17762.65
705.296	17852.39
705.631	17793.69
705.966	17822.7
706.301	17816.36
706.637	17839.92
706.972	17976.35
707.306	17972.34
707.641	17921.41
707.976	17879.96
708.311	17929.72
708.646	17916.33
708.98	17873.99
709.315	17787.71
709.649	17754.32
709.984	17888.47
710.318	17803.75
710.653	17807.96
710.987	17764.9
711.321	17808.76
711.655	17783.44
711.989	17868.58
712.324	17864.54
712.658	17728.94
712.992	17806.29
713.325	17713.27
713.659	17808.63
713.993	17704.37
714.327	17709.16
714.66	17760.61
714.994	17697.32
715.328	17770.91
715.661	17742.87
715.994	17744.99
716.328	17536.15
716.661	17624.94
716.994	17653.02
717.328	17475.43
717.661	17477.53
717.994	17481.37
718.327	17546.74
718.66	17554.45
718.993	17595.69
719.325	17634.28
719.658	17746.19
719.991	17782.78
720.324	17849.54
720.656	17722.53
720.989	17730.75
721.321	17871.77
721.654	17853.3
721.986	17614.59
722.318	17537.93
722.651	17659.12
722.983	17650.88
723.315	17606.66
723.647	17475.41
723.979	17373.55
724.311	17435.78
724.643	17406.07
724.975	17340.27
725.307	17336.76
725.638	17504.07
725.97	17488.71
726.302	17606.58
726.633	17408.66
726.965	17309.85
727.296	17214.51
727.628	17288.93
727.959	17208.37
728.29	17255.22
728.621	17129.15
728.952	17197.17
729.284	17164.48
729.615	17265.22
729.945	17163.12
730.276	17083.82
730.607	17116.33
730.938	17186.21
731.269	17230.96
731.599	17211.17
731.93	17115.8
732.261	17014.3
732.591	17101.83
732.922	17099.84
733.252	16932.8
733.582	16733.23
733.912	16711.8
734.243	16878.96
734.573	16923.09
734.903	16973.32
735.233	16764.56
735.563	16777.01
735.893	16803.17
736.223	16708.89
736.552	16607.18
736.882	16570.25
737.212	16580.8
737.541	16678.73
737.871	16677.78
738.2	16441.98
738.53	16284.59
738.859	16332.7
739.188	16472.76
739.518	16626.9
739.847	16720.21
740.176	16519.38
740.505	16420.47
740.834	16419.38
741.163	16265.57
741.492	16101.63
741.821	15952.19
742.15	15803.7
742.478	15884.58
742.807	15866.15
743.136	15978.5
743.464	15814.34
743.793	15669.37
744.121	15686.56
744.449	15669.18
744.778	15685.75
745.106	15688.53
745.434	15527.29
745.762	15348.35
746.09	15397.07
746.418	15382.21
746.746	15303.37
747.074	15178.18
747.402	15292.79
747.73	15318.51
748.057	15364
748.385	15176.54
748.712	15076.48
749.04	15048.14
749.367	15195.2
749.695	15226.89
750.022	15290.15
750.349	15221.46
750.677	15158.06
751.004	15149.42
751.331	15195.89
751.658	15195.08
751.985	15052.1
752.312	14892.49
752.639	14883.2
752.966	14909.41
753.292	14812.98
753.619	14852.15
753.946	14774.94
754.272	14665.82
754.599	14602.58
754.925	14523.37
755.251	14464.96
755.578	14396.57
755.904	14278.86
756.23	14258.43
756.556	14402.17
756.882	14590.15
757.208	14466.31
757.534	14435.92
757.86	14551.42
758.186	14729.7
758.512	14748.67
758.838	14641.1
759.163	14415.78
759.489	14323.54
759.814	14252.34
760.14	14366.31
760.465	14398.07
760.791	14078.4
761.116	13966.49
761.441	13970.23
761.766	14045.49
762.092	13960.62
762.417	13757.43
762.742	13680.66
763.066	13654.72
763.391	13763.69
763.716	13845.98
764.041	13826.9
764.366	13645.16
764.69	13543.01
765.015	13647.26
765.339	13657.57
765.664	13632.77
765.988	13526.92
766.312	13350.92
766.637	13175.52
766.961	13197.22
767.285	13202.75
767.609	13015.87
767.933	12894.01
768.257	12944.34
768.581	12969.1
768.905	13166.69
769.229	13245.39
769.552	13170.49
769.876	13180.35
770.2	13027.74
770.523	13080.98
770.847	12999.72
771.17	13009.77
771.493	12958.56
771.817	12856.25
772.14	12744.21
772.463	12769.53
772.786	12856.07
773.109	12771.27
773.432	12730.55
773.755	12545.4
774.078	12527.5
774.401	12594.99
774.724	12604.95
775.046	12489.83
775.369	12316.33
775.692	12185.95
776.014	12151.66
776.336	12158.5
776.659	12200.27
776.981	12104.2
777.303	11962.71
777.626	11894.36
777.948	11965.75
778.27	12049.65
778.592	12018.36
778.914	11944.76
779.236	11810.52
779.557	11809.3
779.879	12064.31
780.201	12199.43
780.523	12232.59
780.844	12087.9
781.166	12068.3
781.487	12079.97
781.809	12139.3
782.13	12219.27
782.451	12074.82
782.772	12035.57
783.094	11935.92
783.415	12026.26
783.736	12109.07
784.057	12238.02
784.378	12245.71
784.698	12116.97
785.019	12103.99
785.34	12054.09
785.661	12291.06
785.981	12450.19
786.302	12425.62
786.622	12304.58
786.943	12314.22
787.263	12265.51
787.583	12399.99
787.903	12493.13
788.224	12429.09
788.544	12371.97
788.864	12267.83
789.184	12397.94
789.504	12444.36
789.824	12525.11
790.143	12448.68
790.463	12327.04
790.783	12211.79
791.102	12200.55
791.422	12341.98
791.741	12375.85
792.061	12291.84
792.38	12232.74
792.699	12016.74
793.019	12074.82
793.338	12109.58
793.657	12139.31
793.976	12279.94
794.295	12190.73
794.614	12192.74
794.933	12223.52
795.252	12299.21
795.57	12282.59
795.889	12248.53
796.208	12095.23
796.526	11878.39
796.845	11911.53
797.163	11944.4
797.482	12050.86
797.8	12068.51
798.118	11877.95
798.436	11766.15
798.754	11710.98
799.073	11688.46
799.391	11789.88
799.708	11844.64
800.026	11735.31
800.344	11612.84
800.662	11578.44
800.98	11556.36
801.297	11613.53
801.615	11683.45
801.932	11742.47
802.25	11629.45
802.567	11527
802.884	11522.97
803.202	11529.95
803.519	11599.01
803.836	11607.19
804.153	11488.17
804.47	11385.59
804.787	11289.81
805.104	11232.07
805.421	11336.49
805.737	11333.71
806.054	11240.64
806.371	11129.83
806.687	11037.85
807.004	10973.46
807.32	11032.26
807.637	11126.21
807.953	11117.28
808.269	11036.92
808.585	10978.47
808.902	10783.04
809.218	10769.39
809.534	10780.97
809.85	10817.34
810.165	10736.17
810.481	10635.29
810.797	10432.45
811.113	10360.44
811.428	10437.92
811.744	10538.08
812.059	10525.93
812.375	10417.95
812.69	10264.65
813.006	10189.72
813.321	10304.7
813.636	10362.49
813.951	10460.16
814.266	10375.41
814.581	10246.11
814.896	10152.53
815.211	10149.99
815.526	10194.66
815.841	10215.81
816.155	10263.57
816.47	10146.3
816.784	10059.69
817.099	9995.57
817.413	10020.88
817.728	10092.62
818.042	10099.34
818.356	10065.29
818.67	9955.29
818.985	9825.12
819.299	9680.31
819.613	9735.63
819.926	9726.13
820.24	9748.15
820.554	9749.63
820.868	9708.88
821.182	9582.15
821.495	9591.96
821.809	9539.61
822.122	9572.72
822.436	9621.28
822.749	9531.13
823.062	9368.92
823.376	9216.86
823.689	9158.45
824.002	9211.31
824.315	9268.85
824.628	9281.72
824.941	9218.83
825.254	9054.29
825.566	8911.03
825.879	8949.45
826.192	8961.44
826.504	8951.14
826.817	8961.71
827.129	8950.62
827.442	8852.27
827.754	8793.42
828.066	8798.93
828.379	8816.69
828.691	8867.71
829.003	8833.1
829.315	8833.42
829.627	8762.64
829.939	8669.77
830.251	8697.46
830.562	8727.59
830.874	8829.93
831.186	8755.06
831.497	8708.95
831.809	8571.21
832.12	8425.97
832.432	8366.03
832.743	8399.55
833.054	8460.56
833.365	8447.59
833.676	8394.54
833.988	8316.67
834.299	8237.4
834.61	8237.12
834.92	8296.01
835.231	8379.4
835.542	8354.69
835.853	8259.64
836.163	8153.03
836.474	8092.38
836.784	8044.96
837.095	8033.01
837.405	8059.25
837.715	8113.5
838.026	8129.12
838.336	8023.52
838.646	7946.37
838.956	7880.38
839.266	7891.7
839.576	7928.61
839.886	8004.75
840.195	7969.05
840.505	7869.11
840.815	7750.09
841.124	7650.86
841.434	7640.22
841.743	7690.17
842.053	7747.27
842.362	7708.43
842.671	7642.67
842.981	7554.83
843.29	7443.04
843.599	7475.63
843.908	7516.36
844.217	7550.55
844.526	7598.51
844.835	7558.35
845.143	7403.69
845.452	7273.47
845.761	7251.13
846.069	7211.32
846.378	7324.32
846.686	7344.37
846.995	7313.31
847.303	7233.58
847.611	7186.55
847.919	7054.09
848.227	7056.5
848.535	7033.86
848.843	7044.58
849.151	7037.26
849.459	7044.26
849.767	6936.36
850.075	6851.58
850.382	6774.11
850.69	6810.6
850.998	6857.34
851.305	6870.06
851.612	6861.04
851.92	6786.18
852.227	6671.94
852.534	6616.69
852.841	6636.91
853.148	6712.91
853.455	6817.72
853.762	6819.78
854.069	6781.46
854.376	6674.33
854.683	6583.52
854.99	6501.77
855.296	6470.86
855.603	6439.46
855.909	6471.86
856.216	6474.18
856.522	6443.42
856.828	6360.51
857.135	6254.36
857.441	6234.2
857.747	6226.19
858.053	6304.04
858.359	6261.7
858.665	6286.85
858.971	6174.32
859.276	6076.48
859.582	5997.27
859.888	6005.88
860.193	6014.11
860.499	6037.68
860.804	6075.5
861.11	6016.67
861.415	5953.9
861.72	5875.97
862.026	5773.48
862.331	5762.89
862.636	5745.64
862.941	5733.16
863.246	5695.59
863.551	5658.72
863.855	5601.64
864.16	5544.35
864.465	5497.75
864.769	5529.55
865.074	5566.05
865.378	5594.74
865.683	5607.59
865.987	5625.87
866.291	5518.2
866.596	5465.69
866.9	5407.57
867.204	5422.24
867.508	5459.55
867.812	5503.98
868.116	5501.41
868.42	5420.05
868.723	5343.46
869.027	5278.69
869.331	5223.19
869.634	5227.14
869.938	5215.52
870.241	5249.85
870.544	5257.65
870.848	5233.79
871.151	5185.98
871.454	5120.59
871.757	5076.25
872.06	5064.74
872.363	5084.13
872.666	5140.6
872.969	5132.91
873.272	5103.27
873.574	5052.53
873.877	4991.67
874.18	4931.9
874.482	4905.92
874.785	4926.45
875.087	4913.61
875.389	4939.42
875.692	4920.91
875.994	4861.77
876.296	4764.18
876.598	4696.81
876.9	4669.24
877.202	4671.63
877.504	4695.96
877.805	4711.89
878.107	4695.96
878.409	4612.41
878.71	4584.2
879.012	4534.61
879.313	4492.89
879.615	4512.33
879.916	4522.07
880.217	4540.18
880.518	4549.75
880.82	4541.76
881.121	4473.12
881.422	4404.94
881.723	4354.22
882.023	4327.61
882.324	4343.61
882.625	4336.6
882.926	4346.13
883.226	4363.44
883.527	4286.39
883.827	4254.01
884.128	4217.58
884.428	4203.04
884.728	4155.9
885.028	4156.66
885.328	4147.4
885.629	4118.72
885.929	4102.23
886.228	4051.6
886.528	3973.25
886.828	3920.52
887.128	3890.98
887.427	3875.09
887.727	3887.58
888.027	3882.03
888.326	3886.83
888.625	3861.16
888.925	3790.78
889.224	3764.72
889.523	3747.62
889.822	3747.73
890.121	3766.75
890.42	3770.59
890.719	3795.21
891.018	3770
891.317	3757.3
891.616	3712.58
891.914	3657.9
892.213	3643.77
892.512	3641.25
892.81	3663.36
893.108	3694.25
893.407	3716.41
893.705	3733.08
894.003	3697.03
894.301	3664
894.599	3637.74
894.897	3630.08
895.195	3625.5
895.493	3610.56
895.791	3655.93
896.089	3688.15
896.386	3663.05
896.684	3654.05
896.981	3613.11
897.279	3579.34
897.576	3609.14
897.874	3603.36
898.171	3648.6
898.468	3684.26
898.765	3677.78
899.062	3682.53
899.359	3630.32
899.656	3580.05
899.953	3541.66
900.25	3526.82
900.547	3523.33
900.843	3532.02
901.14	3566.57
901.436	3582.62
901.733	3573.49
902.029	3542.15
902.325	3504.97
902.622	3458.5
902.918	3445.1
903.214	3445.27
903.51	3448.32
903.806	3483.32
904.102	3496.66
904.398	3495.53
904.694	3457.08
904.989	3449.78
905.285	3393.91
905.581	3355.89
905.876	3374.21
906.171	3393.2
906.467	3411.64
906.762	3402.83
907.057	3376.65
907.353	3362.73
907.648	3310.49
907.943	3288.08
908.238	3270.23
908.533	3258.14
908.827	3272.69
909.122	3284.92
909.417	3298.63
909.711	3308.65
910.006	3283.19
910.301	3236.9
910.595	3225.91
910.889	3222.24
911.184	3189.82
911.478	3211.61
911.772	3248.99
912.066	3254.29
912.36	3245.51
912.654	3209.02
912.948	3153.47
913.242	3132.86
913.536	3074.89
913.829	3040.66
914.123	3026.83
914.416	3005.82
914.71	3015.89
915.003	3038.53
915.297	3014.32
915.59	2966.6
915.883	2931.98
916.176	2909.53
916.469	2886.1
916.762	2888.16
917.055	2896.83
917.348	2907.31
917.641	2936.01
917.934	2940.03
918.226	2912.76
918.519	2869.84
918.811	2824.13
919.104	2783.81
919.396	2751.71
919.689	2740.17
919.981	2743.85
920.273	2740.26
920.565	2745.58
920.857	2715
921.149	2683.78
921.441	2638.34
921.733	2595.99
922.025	2562.41
922.316	2548.73
922.608	2561.75
922.9	2562.01
923.191	2567.89
923.483	2577.83
923.774	2551.22
924.065	2525.24
924.357	2486.08
924.648	2436.85
924.939	2406.93
925.23	2394.43
925.521	2384.97
925.812	2381.48
926.102	2379.19
926.393	2364.12
926.684	2354.52
926.975	2321.45
927.265	2290.24
927.556	2255.36
927.846	2227
928.136	2204.49
928.427	2195.62
928.717	2197.99
929.007	2199.85
929.297	2192.4
929.587	2184.08
929.877	2176.94
930.167	2154.82
930.457	2127.79
930.746	2094.4
931.036	2080.09
931.325	2070.99
931.615	2073.28
931.904	2079.84
932.194	2056.6
932.483	2027.59
932.772	2015.96
933.062	1995.65
933.351	1968.72
933.64	1939.25
933.929	1933.78
934.218	1929.62
934.506	1914.83
934.795	1904.98
935.084	1896.82
935.372	1878.22
935.661	1852.21
935.949	1824.26
936.238	1805.24
936.526	1782.22
936.815	1773.65
937.103	1775.69
937.391	1777.77
937.679	1773.06
937.967	1762.7
938.255	1749.02
938.543	1730.22
938.831	1701.99
939.118	1685.65
939.406	1666.65
939.693	1651.84
939.981	1633.14
940.268	1630.61
940.556	1615.77
940.843	1602.17
941.13	1590.35
941.418	1569.41
941.705	1543.79
941.992	1520.61
942.279	1499.39
942.566	1480.92
942.852	1465.77
943.139	1457.27
943.426	1446.93
943.712	1441.44
943.999	1429.08
944.285	1421.39
944.572	1394.52
944.858	1378.26
945.144	1362.16
945.431	1335.75
945.717	1319.08
946.003	1315.39
946.289	1308.69
946.575	1300.84
946.861	1294.48
947.146	1287.8
947.432	1274.24
947.718	1254.15
948.003	1232.66
948.289	1218.3
948.574	1202.19
948.86	1188.92
949.145	1187.96
949.43	1179.31
949.715	1179.61
950	1171.23
950.285	1167.28
950.57	1158.02
950.855	1148.28
951.14	1136.28
951.425	1125.97
951.709	1112.69
951.994	1102.28
952.278	1099.26
952.563	1091.86
952.847	1079.53
953.132	1073.8
953.416	1071.55
953.7	1061.89
953.984	1049.23
954.268	1036.99
954.552	1023.47
954.836	1013.07
955.12	1003.65
955.404	996.37
955.687	992.46
955.971	989.33
956.254	989.09
956.538	981.46
956.821	974.59
957.105	967.67
957.388	960.51
957.671	948.01
957.954	939.83
958.237	933.12
958.52	929.98
958.803	924.94
959.086	919.05
959.369	917.01
959.652	907.03
959.934	900.54
960.217	888.7
960.499	874.75
960.782	865.04
961.064	854.39
961.346	846.15
961.629	839.02
961.911	832.72
962.193	827.6
962.475	824.22
962.757	815.01
963.039	808.07
963.32	802.11
963.602	792.97
963.884	782.22
964.165	774.97
964.447	770.52
964.728	760.03
965.01	757.16
965.291	753.29
965.572	746.92
965.853	743.41
966.134	731.12
966.415	726.6
966.696	719.27
966.977	709.31
967.258	705.39
967.539	700.2
967.819	694.93
968.1	692.19
968.38	685.89
968.661	683.88
968.941	676.72
969.222	672.85
969.502	666.98
969.782	660.07
970.062	655.79
970.342	649.22
970.622	643.4
970.902	634.02
971.182	629.23
971.462	627.24
971.741	626.63
972.021	622.19
972.3	615.16
972.58	613.74
972.859	607.03
973.138	604.45
973.418	600.8
973.697	595.12
973.976	592.54
974.255	591.68
974.534	584.67
974.813	583.29
975.092	580.38
975.37	579.02
975.649	574.56
975.928	568
976.206	562.3
976.485	558.97
976.763	554.77
977.041	548.84
977.32	548.13
977.598	542.02
977.876	539.67
978.154	538.6
978.432	536.1
978.71	529.46
978.988	529.3
979.265	522.2
979.543	516.97
979.821	513.76
980.098	510.25
980.376	506.97
980.653	503.67
980.93	498.9
981.208	498.65
981.485	496.8
981.762	492.62
982.039	488.71
982.316	488.26
982.593	488.61
982.87	486.27
983.146	481.33
983.423	478.39
983.7	477.3
983.976	472.32
984.253	473.6
984.529	469.2
984.805	466.26
985.082	464.29
985.358	462.93
985.634	459.6
985.91	457.18
986.186	455.48
986.462	454.67
986.738	450.3
987.013	449.39
987.289	447.32
987.565	445.96
987.84	443.63
988.116	441.77
988.391	443.42
988.666	441.44
988.942	437.2
989.217	437.14
989.492	433.48
989.767	431.96
990.042	430.34
990.317	430.28
990.592	426.28
990.866	426.74
991.141	422.67
991.416	424.58
991.69	422.25
991.964	419.99
992.239	420.02
992.513	417.84
992.787	415.3
993.062	414.02
993.336	415.6
993.61	412.23
993.884	409.19
994.158	407.28
994.431	408.36
994.705	407.37
994.979	404.95
995.252	404.61
995.526	404.25
995.799	401.25
996.073	401.2
996.346	398.37
996.619	399.99
996.892	399.52
997.165	399.04
997.438	397.37
997.711	394.3
997.984	395.62
998.257	394.09
998.53	394.38
998.802	391.17
999.075	392.14
999.347	391.21
999.62	389.49
999.892	388.58
1000.165	388.03
1000.437	387.46
1000.709	385.4
1000.981	386.32
1001.253	385.52
1001.525	383.57
1001.797	382.44
1002.068	382.49
1002.34	383.28
1002.612	382.05
1002.883	380.56
1003.155	380.93
1003.426	381.22
1003.698	379.03
1003.969	380.58
1004.24	376.76
1004.511	377.58
1004.782	378.4
1005.053	374.5
1005.324	373.76
1005.595	374.67
1005.866	374.86
1006.136	373.97
1006.407	374.27
1006.678	371.43
1006.948	372.35
1007.218	372.89
1007.489	371.16
1007.759	371.98
1008.029	370.81
1008.299	369.53
1008.569	371.3
1008.839	370.63
1009.109	368.22
1009.379	371.05
1009.649	367.95
1009.918	368.64
1010.188	367.03
1010.458	368.39
1010.727	366.93
1010.996	367.49
1011.266	366.5
1011.535	366.93
1011.804	366.85
1012.073	364.57
1012.342	367.29
1012.611	366.35
1012.88	364.14
1013.149	361.21
1013.417	361.29
1013.686	365.72
1013.955	364.21
1014.223	364.86
1014.492	364.9
1014.76	363.83
1015.028	363.09
1015.296	362.25
1015.565	361.32
1015.833	361.14
1016.101	363.22
1016.368	362.59
1016.636	361.87
1016.904	360.31
1017.172	363.35
1017.439	360.69
1017.707	361.77
1017.974	359.79
1018.242	360.01
1018.509	359.17
1018.776	360.08
1019.044	360.09
1019.311	358.08
1019.578	360.68
1019.845	359.82
1020.112	358.8
1020.378	358.8
1020.645	358.8
