Data from 190508_Kr_With_Film_42K_FLMS138901_11-32-58-640.txt Node
Date: Wed May 08 11:32:58 EDT 2019
User: pSAM
Spectrometer: FLMS13890
Trigger mode: 0
Integration Time (sec): 5.000000E-3
Scans to average: 1000
Electric dark correction enabled: true
Nonlinearity correction enabled: false
Boxcar width: 0
XAxis mode: Wavelengths
Number of Pixels in Spectrum: 2048
>>>>>Begin Spectral Data<<<<<
342.097	-50.86
342.483	-50.86
342.868	-50.86
343.254	-92.77
343.639	-95.89
344.025	-98.27
344.41	-91.57
344.796	-85.53
345.181	-78
345.567	-65.14
345.952	-51.86
346.337	-34.22
346.722	-17.84
347.107	-2.26
347.493	15.14
347.878	35.28
348.263	55.28
348.648	76.24
349.033	94.9
349.418	115.34
349.802	132.53
350.187	151.1
350.572	168.64
350.957	258.04
351.342	457.2
351.726	489.36
352.111	506.26
352.495	523.49
352.88	536.35
353.264	549.25
353.649	562.71
354.033	574.99
354.418	586.94
354.802	596.51
355.186	607.88
355.57	616.39
355.955	625.81
356.339	631.6
356.723	635.55
357.107	642.67
357.491	648.65
357.875	649.95
358.259	653.67
358.643	659.89
359.026	659.64
359.41	663.78
359.794	663.49
360.178	669.31
360.561	666.64
360.945	666.19
361.329	671.97
361.712	672.04
362.096	671.44
362.479	672.8
362.862	673.55
363.246	671.74
363.629	671.9
364.012	672.68
364.396	675.65
364.779	676.62
365.162	675.83
365.545	680.59
365.928	681.78
366.311	685.01
366.694	688.89
367.077	690.77
367.46	689.77
367.843	689.08
368.226	693.86
368.608	695.52
368.991	696.04
369.374	695.68
369.756	698.66
370.139	692.76
370.521	698.69
370.904	700.55
371.286	701.43
371.669	702.54
372.051	705.4
372.433	708.87
372.816	710.57
373.198	711.07
373.58	718.83
373.962	719.84
374.344	721.07
374.726	726.9
375.108	729.18
375.49	732.98
375.872	734.14
376.254	728.89
376.636	734.06
377.018	738.35
377.399	739.36
377.781	739.75
378.163	740.83
378.544	741.31
378.926	750.21
379.307	757.37
379.689	764.37
380.07	762.66
380.452	770.7
380.833	777.28
381.214	778.88
381.596	784.12
381.977	797.3
382.358	805.99
382.739	813.23
383.12	815.69
383.501	814.18
383.882	811.48
384.263	813.18
384.644	816.41
385.025	822.79
385.406	824.61
385.787	830.99
386.167	835.95
386.548	845.85
386.929	856.24
387.309	867
387.69	877.1
388.07	881.42
388.451	880.68
388.831	881.82
389.211	874.4
389.592	867.74
389.972	870.66
390.352	881.22
390.733	882.98
391.113	886.87
391.493	897.99
391.873	916.26
392.253	928.09
392.633	942.55
393.013	946.06
393.393	943.48
393.772	940.34
394.152	948.61
394.532	946.25
394.912	949.86
395.291	947.66
395.671	953.49
396.05	948.13
396.43	952.78
396.809	957.1
397.189	975.37
397.568	991.63
397.948	992.05
398.327	1005.01
398.706	1006.32
399.085	1006.19
399.465	997.36
399.844	993.68
400.223	982.64
400.602	991.67
400.981	994.72
401.36	995.93
401.739	996.16
402.117	1010.94
402.496	1000.15
402.875	1007.68
403.254	1021.77
403.632	1022.91
404.011	1039.38
404.39	1052.78
404.768	1059.43
405.147	1076.69
405.525	1078.25
405.903	1074.12
406.282	1073.51
406.66	1064.75
407.038	1055.28
407.417	1059.82
407.795	1068.64
408.173	1078.93
408.551	1080.03
408.929	1085.9
409.307	1089.75
409.685	1099.8
410.063	1103.38
410.441	1103.44
410.818	1107.05
411.196	1116.56
411.574	1139.65
411.952	1148.68
412.329	1166.94
412.707	1185.28
413.084	1186.88
413.462	1176.63
413.839	1180.75
414.217	1169.55
414.594	1180.4
414.971	1188.82
415.349	1194.7
415.726	1196.71
416.103	1190.34
416.48	1195.62
416.857	1203.77
417.234	1215.23
417.611	1221.64
417.988	1219.48
418.365	1209.35
418.742	1220.01
419.119	1236.45
419.495	1245.18
419.872	1250.51
420.249	1289.94
420.625	1312.29
421.002	1327.94
421.379	1335.14
421.755	1349.52
422.131	1373.14
422.508	1381
422.884	1380.6
423.26	1384.28
423.637	1382.98
424.013	1345.06
424.389	1341.65
424.765	1339.98
425.141	1351.79
425.517	1338.77
425.893	1337.45
426.269	1354.55
426.645	1389.94
427.021	1421.66
427.397	1426.51
427.772	1415.62
428.148	1404.59
428.524	1430.24
428.899	1433.64
429.275	1469.11
429.651	1492.45
430.026	1507.15
430.401	1503.95
430.777	1492.94
431.152	1474.13
431.527	1468.57
431.903	1479.84
432.278	1481.38
432.653	1497.68
433.028	1537.53
433.403	1569.45
433.778	1597.39
434.153	1567.16
434.528	1554.7
434.903	1562.69
435.278	1580.64
435.653	1595.34
436.027	1597.33
436.402	1609.42
436.777	1617.26
437.151	1627.83
437.526	1649.33
437.9	1661.29
438.275	1687.55
438.649	1675.07
439.023	1685.39
439.398	1679.83
439.772	1679.98
440.146	1711.9
440.52	1766.74
440.895	1801.87
441.269	1825.58
441.643	1822.13
442.017	1805.53
442.391	1808.36
442.765	1815.67
443.138	1813.01
443.512	1845.08
443.886	1848.38
444.26	1847.22
444.633	1857.77
445.007	1854.93
445.38	1861.12
445.754	1857.24
446.127	1874.91
446.501	1871.39
446.874	1862.54
447.248	1858.84
447.621	1883.14
447.994	1881.05
448.367	1896.08
448.741	1902.45
449.114	1888.06
449.487	1899.62
449.86	1903.65
450.233	1906.03
450.606	1901.53
450.978	1898.11
451.351	1927.3
451.724	1918.45
452.097	1907.17
452.469	1926.97
452.842	1926.42
453.215	1930.97
453.587	1934.4
453.96	1954.82
454.332	1963.83
454.704	1984.15
455.077	1984.57
455.449	1992.14
455.821	1996.48
456.194	2033.58
456.566	2043.36
456.938	2072.51
457.31	2097.49
457.682	2129.7
458.054	2129.74
458.426	2142.52
458.798	2153.91
459.17	2165.75
459.541	2158.57
459.913	2136.84
460.285	2144.58
460.656	2155.51
461.028	2145.98
461.399	2170.7
461.771	2177.56
462.142	2213.01
462.514	2268.5
462.885	2281.66
463.256	2352.79
463.628	2359.45
463.999	2393.89
464.37	2424.31
464.741	2437.9
465.112	2412.36
465.483	2425.14
465.854	2443.25
466.225	2427.42
466.596	2425.18
466.967	2475.78
467.338	2479.6
467.708	2527.6
468.079	2517.65
468.45	2525.96
468.82	2515.99
469.191	2536.28
469.561	2554.64
469.932	2593.62
470.302	2588.02
470.673	2639.92
471.043	2668.17
471.413	2697.67
471.783	2749.67
472.154	2817.99
472.524	2851.87
472.894	2909.51
473.264	2932.83
473.634	2930.59
474.004	2958.33
474.374	3036
474.743	3060.83
475.113	3125.62
475.483	3144.88
475.853	3191.87
476.222	3228.24
476.592	3294.15
476.961	3294.72
477.331	3335.68
477.7	3372.68
478.07	3448
478.439	3462.73
478.808	3513.77
479.178	3559.01
479.547	3644.81
479.916	3670.57
480.285	3733.41
480.654	3764.58
481.023	3828.5
481.392	3878.01
481.761	3932.06
482.13	3996.87
482.499	4056.39
482.867	4087.87
483.236	4195.21
483.605	4294.54
483.973	4345.87
484.342	4449.59
484.71	4875.27
485.079	5520.44
485.447	5914.98
485.816	5959.85
486.184	5451.91
486.552	5059.66
486.921	4885.61
487.289	4814.39
487.657	4831.59
488.025	4852.31
488.393	4900.92
488.761	4976.25
489.129	5086.37
489.497	5110.49
489.865	5210.62
490.233	5238.82
490.6	5269.61
490.968	5278.59
491.336	5321.57
491.703	5389.64
492.071	5485.84
492.438	5539.55
492.806	5577.52
493.173	5656.18
493.541	5674.35
493.908	5688.77
494.275	5715.57
494.642	5732.36
495.01	5777.49
495.377	5834.19
495.744	5885.96
496.111	5971.45
496.478	6010.22
496.845	6013.9
497.211	6024.23
497.578	6102.9
497.945	6196.35
498.312	6273.12
498.678	6341.7
499.045	6401.88
499.412	6374.64
499.778	6382.93
500.145	6430.22
500.511	6509.86
500.878	6595.09
501.244	6656.06
501.61	6669.5
501.976	6659.09
502.343	6719.69
502.709	6803.14
503.075	6775.21
503.441	6773.05
503.807	6788.8
504.173	6830.34
504.539	6891.29
504.905	6934.6
505.27	6994.46
505.636	7019.7
506.002	7092.6
506.367	7071.84
506.733	7082.21
507.099	7100.02
507.464	7199.68
507.829	7223.3
508.195	7257.01
508.56	7259.57
508.926	7256.67
509.291	7288.44
509.656	7364.7
510.021	7410.65
510.386	7461.07
510.751	7518.13
511.116	7562.09
511.481	7591.33
511.846	7635.87
512.211	7641.25
512.576	7703.85
512.941	7718.69
513.305	7749.16
513.67	7784.31
514.035	7819.09
514.399	7849.75
514.764	7875.59
515.128	7935.12
515.493	7981.18
515.857	8023.37
516.221	7997.13
516.585	8040.45
516.95	8086.22
517.314	8103.39
517.678	8125.85
518.042	8151.38
518.406	8266.1
518.77	8271.43
519.134	8334.62
519.498	8391.92
519.862	8405.86
520.225	8406.88
520.589	8479.36
520.953	8539.68
521.316	8565.62
521.68	8541.12
522.043	8611.92
522.407	8614.65
522.77	8651.04
523.134	8761.8
523.497	8775.64
523.86	8846.9
524.223	8882.23
524.587	8964.39
524.95	9015.98
525.313	9054.98
525.676	9076.83
526.039	9132.11
526.402	9132.36
526.765	9207.89
527.127	9267.28
527.49	9315.66
527.853	9392.28
528.215	9423.63
528.578	9525.05
528.941	9513.93
529.303	9581.79
529.666	9622.38
530.028	9638
530.39	9652.42
530.753	9708.03
531.115	9802.34
531.477	9896.45
531.839	9970.3
532.201	9993.33
532.564	10095.83
532.926	10143.12
533.287	10255.97
533.649	10276.58
534.011	10367.86
534.373	10451.41
534.735	10498.1
535.097	10534.89
535.458	10628.25
535.82	10656.41
536.181	10664.83
536.543	10655.73
536.904	10683.18
537.266	10872.33
537.627	10941.33
537.988	10999.58
538.35	11094.59
538.711	11127.03
539.072	11205.76
539.433	11205.11
539.794	11268.12
540.155	11303.84
540.516	11403.51
540.877	11441.1
541.238	11557.05
541.599	11655.01
541.959	11667.15
542.32	11788.2
542.681	11812.18
543.041	11857.32
543.402	11937.26
543.762	11986.11
544.123	11976.74
544.483	12031.38
544.844	12058.9
545.204	12078.22
545.564	12114.75
545.924	12205.7
546.284	12256.92
546.644	12353.82
547.004	12452.21
547.364	12582.55
547.724	12646.36
548.084	12576.67
548.444	12592.85
548.804	12615.86
549.164	12659.37
549.523	12717.55
549.883	12787.8
550.242	12789.54
550.602	12856.18
550.961	12899.47
551.321	12951.27
551.68	13014.56
552.04	13036.38
552.399	13117.53
552.758	13198.7
553.117	13191.02
553.476	13375.38
553.835	13433.05
554.194	13427.41
554.553	13390.78
554.912	13435.22
555.271	13504.26
555.63	13521.63
555.989	13625.29
556.347	13683.2
556.706	13741.67
557.065	13842.89
557.423	13971
557.782	14061.29
558.14	14011.67
558.499	13982.38
558.857	14014.54
559.215	14068.58
559.573	14172
559.932	14201.31
560.29	14265.67
560.648	14289.32
561.006	14341.1
561.364	14376.75
561.722	14401.86
562.08	14443.1
562.438	14404.01
562.795	14559.02
563.153	14651.95
563.511	14765.32
563.868	14858.3
564.226	14915.98
564.583	14917.6
564.941	14854.94
565.298	15052.07
565.656	14991.29
566.013	15121.89
566.37	15259.5
566.727	15486.56
567.085	15577
567.442	15697.92
567.799	15824.16
568.156	15881.81
568.513	16080.08
568.87	16404.38
569.226	16719.54
569.583	16872.58
569.94	16727.59
570.297	16875.38
570.653	16994.43
571.01	17388.84
571.366	17500.54
571.723	17438.22
572.079	17292.45
572.436	17397.9
572.792	17746.01
573.148	18145.27
573.505	18199.95
573.861	18277.4
574.217	18291.34
574.573	18325.86
574.929	18411.34
575.285	18479.98
575.641	18652.7
575.997	18793.19
576.352	18894.79
576.708	19292.49
577.064	19775.21
577.42	19955.47
577.775	19834.8
578.131	19415.91
578.486	19386.23
578.842	19489.91
579.197	19773.81
579.552	20035.93
579.908	19872.05
580.263	19999.55
580.618	20749.64
580.973	21610.98
581.328	22296.27
581.683	21736.35
582.038	20792.22
582.393	19965.61
582.748	19375.75
583.103	19376.05
583.458	19740.16
583.812	20064.38
584.167	20599.4
584.522	20605.8
584.876	20762.62
585.231	20655.43
585.585	20332.4
585.939	20041.95
586.294	20084.24
586.648	20331.44
587.002	20670.5
587.356	20791.08
587.711	21173.97
588.065	21016.34
588.419	20700.84
588.773	20395.99
589.127	20053.63
589.48	20234.63
589.834	20119.43
590.188	19952.99
590.542	19997.38
590.895	19986.83
591.249	20042.72
591.603	20041.43
591.956	20555.2
592.309	20996.31
592.663	21110.5
593.016	21108
593.369	20939.19
593.723	20743.04
594.076	21079.62
594.429	21514
594.782	21691.98
595.135	21406.83
595.488	21059.6
595.841	20934.96
596.194	20754.59
596.547	20785.28
596.899	21063.66
597.252	21107.94
597.605	21165.89
597.957	21333.54
598.31	21520.06
598.662	21740.55
599.015	21630.34
599.367	21557.84
599.719	21566.37
600.072	21747.44
600.424	21863.71
600.776	21901.76
601.128	21931.65
601.48	21723.28
601.832	21987.47
602.184	22202.01
602.536	22554.96
602.888	22793.5
603.24	22636.85
603.592	22455.44
603.943	22097.76
604.295	22018.11
604.646	22085.49
604.998	22289.6
605.349	22386.04
605.701	22328.97
606.052	22410.33
606.404	22412.13
606.755	22548.21
607.106	22554.96
607.457	22378.07
607.808	22395.03
608.159	22317.79
608.51	22251.05
608.861	22424.54
609.212	22528.97
609.563	22807.61
609.914	23056.64
610.265	22859.02
610.615	22929.6
610.966	23067.78
611.316	23107.85
611.667	23135.71
612.017	23103.81
612.368	22914.62
612.718	23375.48
613.068	23330.61
613.419	23418.6
613.769	23350.07
614.119	23272.77
614.469	23256.14
614.819	23216.42
615.169	23177.27
615.519	23279.06
615.869	23137.4
616.219	23105.52
616.568	23130.1
616.918	23104.5
617.268	23277.83
617.617	23150.19
617.967	23151.72
618.316	23103.44
618.666	23235.19
619.015	23486.69
619.364	23569.5
619.714	23699.78
620.063	23428.85
620.412	23218.39
620.761	23154.64
621.11	23350.2
621.459	23451.23
621.808	23641.42
622.157	23745.61
622.506	23887.26
622.855	24040.24
623.203	23988.93
623.552	24015.09
623.901	24245.01
624.249	24107.02
624.598	24036.73
624.946	23969.3
625.295	23937.93
625.643	23919.63
625.991	24039.31
626.34	23933.21
626.688	24146.75
627.036	24223.06
627.384	24071.9
627.732	24025.94
628.08	24186.87
628.428	24194.1
628.776	24369.62
629.124	24394.64
629.471	24557.55
629.819	24629.87
630.167	24604.38
630.514	24547.15
630.862	24502.58
631.209	24559.52
631.557	24601.24
631.904	24593.21
632.251	24517.6
632.599	24433.87
632.946	24655.66
633.293	24792.17
633.64	24816.66
633.987	24856.23
634.334	24767.05
634.681	24831.78
635.028	24920.79
635.375	25041.34
635.722	25179.94
636.068	25268.07
636.415	25222.43
636.762	25184.49
637.108	25228.66
637.455	25173.77
637.801	25273.2
638.147	25356.94
638.494	25208.3
638.84	25383.92
639.186	25263.38
639.532	25257.7
639.878	25452.32
640.225	25659.55
640.571	25697.29
640.916	25571.78
641.262	25615.96
641.608	25495.83
641.954	25581.63
642.3	25729.85
642.645	25780.05
642.991	25968.35
643.337	26012.75
643.682	26039.06
644.028	26200.22
644.373	26313.18
644.718	26360.61
645.064	26422.16
645.409	26294.79
645.754	26308.9
646.099	26334.95
646.444	26426.09
646.789	26536.47
647.134	26294.64
647.479	26274.51
647.824	26463.92
648.169	26478.62
648.513	26622.25
648.858	26631.04
649.203	26581.99
649.547	26584.12
649.892	26516.7
650.236	26647.74
650.581	26631.81
650.925	26607.53
651.269	26694.53
651.613	26855.82
651.958	26799.26
652.302	26814.45
652.646	26749.03
652.99	26762.73
653.334	26915.32
653.678	26649.09
654.022	26793.31
654.365	26849.36
654.709	27312.02
655.053	35004.12
655.396	52495.71
655.74	61383.98
656.083	62157.15
656.427	46799.15
656.77	34772.85
657.114	30175.14
657.457	28525.3
657.8	27793.3
658.143	27673.2
658.486	27467.05
658.83	27383.99
659.173	27190.64
659.516	27215.81
659.858	27262.6
660.201	27073.33
660.544	27041.82
660.887	27081.07
661.229	27240.05
661.572	27189.37
661.915	27177.26
662.257	27110.01
662.6	27205.63
662.942	27118.8
663.284	27118.05
663.627	27144.61
663.969	27188.38
664.311	27334.62
664.653	27202.4
664.995	27138.52
665.337	26993.79
665.679	26804.7
666.021	26733.65
666.363	26687.24
666.705	26930.1
667.046	27009.93
667.388	26976.86
667.73	26989.78
668.071	26991.29
668.413	27033.3
668.754	27195.38
669.096	27038.98
669.437	27233.1
669.778	27179.47
670.119	27160.86
670.461	26939.58
670.802	27080.95
671.143	27222.25
671.484	27430.58
671.825	27545.29
672.165	27675.25
672.506	27793.22
672.847	27801.98
673.188	27852.13
673.528	27834.44
673.869	27631.28
674.21	27598.12
674.55	27550.93
674.89	27350.98
675.231	27339.14
675.571	27402.22
675.911	27328.18
676.252	27315.24
676.592	27380.39
676.932	27193.24
677.272	27015.26
677.612	27110.54
677.952	27275.8
678.292	27282.76
678.631	27313.31
678.971	27312.01
679.311	27492.52
679.651	27463.66
679.99	27496.49
680.33	27518.76
680.669	27403.97
681.009	27330.66
681.348	27271.98
681.687	27363.84
682.026	27415.36
682.366	27318.45
682.705	27338.08
683.044	27359.43
683.383	27499.37
683.722	27595.71
684.061	27497.27
684.4	27657.66
684.738	27600.01
685.077	27715.19
685.416	27585.91
685.754	27445.68
686.093	27447.84
686.431	27496.95
686.77	27247.66
687.108	27344.4
687.447	27279.94
687.785	27319.5
688.123	27241.89
688.461	27402.08
688.799	27516.28
689.137	27630.05
689.475	27807.88
689.813	27665.2
690.151	27765.13
690.489	27762.71
690.827	27640.2
691.164	27776.51
691.502	27647.37
691.84	27324.44
692.177	27324.68
692.515	27316.6
692.852	27293.52
693.189	27540.47
693.527	27452.87
693.864	27121.52
694.201	26892.17
694.538	26993.13
694.875	27104.95
695.212	27080.6
695.549	27153.65
695.886	26998.82
696.223	27055.63
696.56	27436.84
696.897	27431.02
697.233	27391.02
697.57	27227.39
697.906	27389.86
698.243	27261.97
698.579	27012.22
698.916	27175.94
699.252	27061.97
699.588	27109.7
699.924	27125.77
700.261	27108.81
700.597	27136.59
700.933	27127.6
701.269	26982.65
701.605	27157.33
701.941	27132.19
702.276	27253.17
702.612	27094.56
702.948	27150.57
703.283	27154.88
703.619	27080.78
703.954	27193.32
704.29	27115.85
704.625	27104.22
704.961	27087.01
705.296	27087.86
705.631	26942.3
705.966	27108.33
706.301	27354.85
706.637	27341.97
706.972	27495.44
707.306	27311.23
707.641	27205.75
707.976	27061.41
708.311	26995.27
708.646	26998.27
708.98	27108.19
709.315	27185.37
709.649	27126.42
709.984	27393.37
710.318	27140.46
710.653	27069.75
710.987	26847.2
711.321	26909.9
711.655	26841.5
711.989	26823.27
712.324	26784.08
712.658	26840.57
712.992	27018.1
713.325	27018.78
713.659	27082.23
713.993	26793.13
714.327	26877.11
714.66	27048.24
714.994	26960.83
715.328	26924.93
715.661	26985.27
715.994	26971.3
716.328	26665.74
716.661	26639.06
716.994	26827.31
717.328	26727.5
717.661	26702.34
717.994	26600.57
718.327	26581.7
718.66	26462.46
718.993	26577.85
719.325	26636.23
719.658	26568.29
719.991	26495.96
720.324	26578.67
720.656	26479.82
720.989	26394.76
721.321	26359.65
721.654	26348.98
721.986	26350.34
722.318	26282.11
722.651	26218.35
722.983	26052.37
723.315	26115.07
723.647	25885.05
723.979	25778.41
724.311	25767.76
724.643	25796.82
724.975	25966.79
725.307	26061.82
725.638	26367.95
725.97	26239.02
726.302	26290.3
726.633	26128.06
726.965	26217.86
727.296	26151.32
727.628	26102.96
727.959	25865.42
728.29	25896.25
728.621	25809.8
728.952	26007.77
729.284	25798.36
729.615	25837.17
729.945	25719.86
730.276	25635.22
730.607	25579.05
730.938	25344.73
731.269	25399.7
731.599	25327.98
731.93	25329.09
732.261	25339.21
732.591	25461.98
732.922	25490.34
733.252	25266.42
733.582	25075.19
733.912	25069.61
734.243	25088.11
734.573	25069.99
734.903	25033.18
735.233	24671.24
735.563	24661.56
735.893	24687.36
736.223	24628.72
736.552	24638.6
736.882	24651.05
737.212	24540.37
737.541	24382.4
737.871	24293.41
738.2	24064.14
738.53	23850.71
738.859	23973.15
739.188	23891.96
739.518	23938.22
739.847	24009.6
740.176	23835.95
740.505	23684.34
740.834	23468.56
741.163	23335.21
741.492	23289.46
741.821	23348.94
742.15	23384.1
742.478	23393.11
742.807	23357.12
743.136	23497.81
743.464	23397.47
743.793	23302.66
744.121	23324.62
744.449	23160.02
744.778	23042.91
745.106	23198.72
745.434	23161.32
745.762	22941.92
746.09	22887.89
746.418	22964.37
746.746	22998.63
747.074	22926.64
747.402	22875.22
747.73	22801.44
748.057	22742.75
748.385	22630.28
748.712	22616.18
749.04	22594.25
749.367	22672.85
749.695	22475.08
750.022	22548.7
750.349	22403.2
750.677	22329.86
751.004	22062.44
751.331	21927.48
751.658	21980.78
751.985	21762.29
752.312	21576.01
752.639	21591.15
752.966	21619.44
753.292	21700.53
753.619	21942.28
753.946	21910.15
754.272	21640.91
754.599	21560.03
754.925	21507.54
755.251	21418.31
755.578	21501.86
755.904	21543.97
756.23	21446.52
756.556	21384.8
756.882	21513.76
757.208	21470.02
757.534	21481.89
757.86	21405.56
758.186	21165.47
758.512	20955.43
758.838	20997.81
759.163	21047.06
759.489	20998.17
759.814	20756.12
760.14	20681.72
760.465	20699.19
760.791	20587.82
761.116	20528.73
761.441	20365.92
761.766	20293.91
762.092	19982.52
762.417	20041.91
762.742	20173.92
763.066	20262.54
763.391	20239.99
763.716	20134.03
764.041	20148.12
764.366	20041.97
764.69	20038.43
765.015	20046.98
765.339	19824.39
765.664	19669.24
765.988	19636.14
766.312	19498.05
766.637	19238.46
766.961	19158.36
767.285	19040.39
767.609	19089.21
767.933	19213.33
768.257	19375.54
768.581	19385.39
768.905	19247.13
769.229	19119.99
769.552	18920.95
769.876	19022.44
770.2	19102.48
770.523	19105.52
770.847	18979.06
771.17	18890.98
771.493	18805.74
771.817	18609.87
772.14	18375.35
772.463	18328.58
772.786	18497.1
773.109	18302.44
773.432	18291.33
773.755	18227.39
774.078	18157.15
774.401	18025.9
774.724	17830.1
775.046	17918.66
775.369	17902.66
775.692	17814.1
776.014	17669.7
776.336	17417.96
776.659	17365.91
776.981	17322.26
777.303	17328.02
777.626	17416.78
777.948	17426.88
778.27	17484.76
778.592	17463.11
778.914	17578.35
779.236	17605.84
779.557	17551.44
779.879	17442.64
780.201	17219.76
780.523	17248.73
780.844	17274.23
781.166	17310.69
781.487	17339.78
781.809	17365.48
782.13	17406.2
782.451	17394.85
782.772	17593.49
783.094	17453.46
783.415	17553.98
783.736	17430.68
784.057	17306.35
784.378	17221.54
784.698	17182.82
785.019	17417.01
785.34	17235.06
785.661	17341.72
785.981	17349.99
786.302	17324.15
786.622	17433.63
786.943	17668.66
787.263	17541.84
787.583	17602.9
787.903	17540.54
788.224	17460.1
788.544	17570.21
788.864	17634.94
789.184	17753.42
789.504	17567.56
789.824	17471.76
790.143	17442.92
790.463	17519.27
790.783	17476.5
791.102	17447.69
791.422	17386.33
791.741	17191.66
792.061	17108.33
792.38	17223.5
792.699	17257.31
793.019	17383.08
793.338	17290.44
793.657	17200.63
793.976	17347.73
794.295	17378.61
794.614	17447.05
794.933	17392.3
795.252	17277.12
795.57	17034.64
795.889	16921.44
796.208	16843.08
796.526	16762.08
796.845	16886.56
797.163	16789.55
797.482	16724.27
797.8	16652.93
798.118	16570.52
798.436	16627.36
798.754	16669.85
799.073	16677.26
799.391	16657.16
799.708	16535.21
800.026	16443.15
800.344	16477.45
800.662	16552.45
800.98	16526.67
801.297	16370.06
801.615	16199
801.932	16083.5
802.25	16115.15
802.567	16141.11
802.884	16235.02
803.202	16255.85
803.519	16127.47
803.836	16095.04
804.153	16033.43
804.47	15990.19
804.787	15812.43
805.104	15688.91
805.421	15651.73
805.737	15611.25
806.054	15611.25
806.371	15654.52
806.687	15750.84
807.004	15648.11
807.32	15546.34
807.637	15448.3
807.953	15345.53
808.269	15328.71
808.585	15361.73
808.902	15154.54
809.218	15120.44
809.534	15039.44
809.85	15007.87
810.165	14942.78
810.481	15024.69
810.797	15025.16
811.113	14919.36
811.428	14839.61
811.744	14671.1
812.059	14655.48
812.375	14674.89
812.69	14652.15
813.006	14571.08
813.321	14591.41
813.636	14514.88
813.951	14352.41
814.266	14204.94
814.581	14187.93
814.896	14200.27
815.211	14283.64
815.526	14298.6
815.841	14056.73
816.155	13919.13
816.47	13840.39
816.784	13846.12
817.099	13857.27
817.413	13814.71
817.728	13674.37
818.042	13528.89
818.356	13529.57
818.67	13516.26
818.985	13701.44
819.299	13745.92
819.613	13663.84
819.926	13430.42
820.24	13421.9
820.554	13380.21
820.868	13395.08
821.182	13237.73
821.495	13262.25
821.809	13092.11
822.122	12940.29
822.436	12855.51
822.749	12726
823.062	12732.95
823.376	12809.29
823.689	12778.77
824.002	12686.77
824.315	12610.18
824.628	12615.35
824.941	12682.75
825.254	12665.42
825.566	12676.59
825.879	12844.15
826.192	12759.58
826.504	12589.79
826.817	12504.09
827.129	12561.21
827.442	12487.31
827.754	12448.47
828.066	12396.19
828.379	12256.22
828.691	12170.83
829.003	11977.52
829.315	11933.5
829.627	11959.01
829.939	12026.93
830.251	12105.98
830.562	12000.68
830.874	11884.03
831.186	11676.93
831.497	11723.7
831.809	11750.29
832.12	11787.68
832.432	11771.38
832.743	11708.35
833.054	11581.36
833.365	11466.44
833.676	11519.36
833.988	11594.83
834.299	11603.23
834.61	11607.39
834.92	11537.2
835.231	11475.45
835.542	11314.05
835.853	11213.1
836.163	11227.58
836.474	11342.19
836.784	11358.54
837.095	11295.24
837.405	11151.87
837.715	11029.58
838.026	10996.3
838.336	10958.8
838.646	11032.3
838.956	11002.13
839.266	10977.45
839.576	10877.1
839.886	10782.72
840.195	10726.75
840.505	10673.43
840.815	10645.65
841.124	10642.59
841.434	10684.94
841.743	10605.87
842.053	10441.59
842.362	10211.74
842.671	10223.35
842.981	10372.18
843.29	10353.65
843.599	10371.89
843.908	10354.06
844.217	10231.75
844.526	10189.85
844.835	10142.33
845.143	10080.47
845.452	10017.72
845.761	10088.25
846.069	9937.9
846.378	9914.16
846.686	9800.51
846.995	9745.77
847.303	9698.09
847.611	9755.88
847.919	9723.1
848.227	9697.89
848.535	9593.46
848.843	9518.21
849.151	9444.21
849.459	9492.94
849.767	9494.12
850.075	9549.7
850.382	9496.94
850.69	9479.6
850.998	9408.48
851.305	9225.25
851.612	9175.59
851.92	9213.05
852.227	9268.44
852.534	9318.82
852.841	9341.15
853.148	9213.64
853.455	9081.05
853.762	8921.36
854.069	8892.85
854.376	8894.71
854.683	8920.67
854.99	8837.68
855.296	8796.67
855.603	8726.31
855.909	8624.26
856.216	8486.5
856.522	8445.28
856.828	8426.81
857.135	8424.37
857.441	8490
857.747	8507.47
858.053	8476.98
858.359	8292.29
858.665	8261.73
858.971	8196.29
859.276	8209.85
859.582	8200.59
859.888	8206.76
860.193	8113.37
860.499	8014.87
860.804	7925.39
861.11	7846.77
861.415	7865.47
861.72	7923.82
862.026	7907.91
862.331	7932.12
862.636	7904.6
862.941	7856.68
863.246	7740.24
863.551	7685.9
863.855	7662.54
864.16	7701.61
864.465	7737.45
864.769	7726.75
865.074	7657.14
865.378	7546.64
865.683	7472.25
865.987	7476.97
866.291	7468.92
866.596	7506.63
866.9	7451.73
867.204	7418.98
867.508	7320.62
867.812	7219.63
868.116	7123.94
868.42	7024.85
868.723	6979.61
869.027	7057.6
869.331	7097.85
869.634	7087.93
869.938	7002.53
870.241	6963.35
870.544	6890.87
870.848	6836.19
871.151	6797.42
871.454	6747.59
871.757	6736.68
872.06	6730.64
872.363	6713.68
872.666	6703.8
872.969	6627.73
873.272	6591.86
873.574	6565.45
873.877	6541.98
874.18	6490.37
874.482	6477.16
874.785	6440.71
875.087	6319.72
875.389	6250.65
875.692	6220.23
875.994	6207.32
876.296	6217.28
876.598	6220.37
876.9	6204.68
877.202	6126.53
877.504	6053.21
877.805	5989.02
878.107	5952.92
878.409	5875.78
878.71	5897.98
879.012	5901.55
879.313	5921.69
879.615	5959.73
879.916	5852.2
880.217	5769.13
880.518	5721.01
880.82	5688.23
881.121	5661.61
881.422	5678.67
881.723	5663.98
882.023	5647.01
882.324	5631.84
882.625	5575.68
882.926	5533.9
883.226	5531.86
883.527	5482.93
883.827	5491.31
884.128	5491.27
884.428	5518.65
884.728	5446.8
885.028	5380.07
885.328	5298.21
885.629	5197.5
885.929	5163.28
886.228	5153.23
886.528	5130.94
886.828	5131.12
887.128	5116.69
887.427	5054.22
887.727	4982.73
888.027	4896.38
888.326	4855.03
888.625	4848.62
888.925	4863.08
889.224	4898.46
889.523	4903.11
889.822	4884.02
890.121	4857.7
890.42	4787.06
890.719	4787.54
891.018	4747.38
891.317	4768.57
891.616	4786.81
891.914	4786.99
892.213	4801.96
892.512	4786.11
892.81	4741.29
893.108	4674.13
893.407	4635.42
893.705	4632.49
894.003	4614.54
894.301	4618.6
894.599	4647.17
894.897	4685.41
895.195	4678.9
895.493	4628.71
895.791	4615.84
896.089	4602.25
896.386	4572.37
896.684	4582.85
896.981	4564.81
897.279	4575.45
897.576	4627.51
897.874	4597.97
898.171	4586.05
898.468	4563.23
898.765	4501.01
899.062	4515.65
899.359	4503.86
899.656	4519.03
899.953	4523.97
900.25	4532.37
900.547	4514.34
900.843	4488.53
901.14	4485.64
901.436	4495.68
901.733	4505.51
902.029	4513.57
902.325	4533.69
902.622	4501.32
902.918	4515.56
903.214	4495.45
903.51	4419.8
903.806	4376.01
904.102	4316.67
904.398	4304.14
904.694	4305.86
904.989	4370.92
905.285	4359.63
905.581	4346.48
905.876	4324.34
906.171	4284.65
906.467	4247.69
906.762	4212.91
907.057	4192.83
907.353	4199.42
907.648	4178.51
907.943	4185.79
908.238	4179.58
908.533	4147.66
908.827	4110.19
909.122	4053.14
909.417	4011.28
909.711	4012.11
910.006	4008.74
910.301	3993.74
910.595	4028.69
910.889	4052.8
911.184	3999.26
911.478	3996.76
911.772	3988.14
912.066	3939.47
912.36	3887.35
912.654	3834.77
912.948	3812.37
913.242	3849.86
913.536	3848.05
913.829	3868.17
914.123	3865.96
914.416	3807.78
914.71	3753.3
915.003	3700.87
915.297	3650.09
915.59	3631.58
915.883	3634.62
916.176	3657.79
916.469	3677.75
916.762	3676.03
917.055	3630.17
917.348	3565.48
917.641	3523.46
917.934	3489.58
918.226	3462.18
918.519	3450.53
918.811	3443.47
919.104	3429.88
919.396	3417.41
919.689	3400.58
919.981	3368.67
920.273	3323.2
920.565	3295.69
920.857	3245.99
921.149	3233.36
921.441	3225.33
921.733	3222.85
922.025	3204.58
922.316	3184.51
922.608	3162.52
922.9	3117.63
923.191	3075.94
923.483	3054.83
923.774	3009.48
924.065	2996.19
924.357	2994.22
924.648	2990.82
924.939	2992.51
925.23	2995.16
925.521	2977.52
925.812	2956.55
926.102	2907.81
926.393	2876.49
926.684	2854.59
926.975	2843.3
927.265	2847.43
927.556	2846.88
927.846	2828.39
928.136	2805.36
928.427	2775.46
928.717	2736.55
929.007	2695.28
929.297	2649.52
929.587	2628.79
929.877	2633.67
930.167	2652.72
930.457	2664.15
930.746	2657.99
931.036	2654.79
931.325	2618.22
931.615	2580.31
931.904	2554.69
932.194	2499.45
932.483	2469.96
932.772	2466.02
933.062	2458.17
933.351	2448.03
933.64	2430.14
933.929	2419.76
934.218	2396.56
934.506	2357.1
934.795	2316.2
935.084	2276.38
935.372	2253.78
935.661	2235.5
935.949	2227.6
936.238	2229.47
936.526	2216.22
936.815	2203.19
937.103	2193.17
937.391	2180.84
937.679	2153.52
937.967	2117.22
938.255	2091.16
938.543	2080.26
938.831	2057.27
939.118	2062.97
939.406	2061.95
939.693	2047.94
939.981	2023.22
940.268	2002.03
940.556	1962.51
940.843	1940.59
941.13	1922.66
941.418	1905.84
941.705	1897.27
941.992	1896.38
942.279	1893.1
942.566	1885.69
942.852	1875.17
943.139	1860.57
943.426	1836.13
943.712	1815.3
943.999	1791.67
944.285	1782.18
944.572	1764.56
944.858	1756.16
945.144	1751.79
945.431	1725.04
945.717	1714.56
946.003	1707.76
946.289	1696.75
946.575	1677.09
946.861	1657.99
947.146	1630.62
947.432	1620.44
947.718	1605.98
948.003	1600.92
948.289	1596.29
948.574	1590.96
948.86	1571.9
949.145	1553.8
949.43	1524.27
949.715	1502.75
950	1481.66
950.285	1467.3
950.57	1463.75
950.855	1461.66
951.14	1448.53
951.425	1443.52
951.709	1438.72
951.994	1433.41
952.278	1423.47
952.563	1408.81
952.847	1387.52
953.132	1371.52
953.416	1365.23
953.7	1351.51
953.984	1344.09
954.268	1339.02
954.552	1331.78
954.836	1326.23
955.12	1314.75
955.404	1305.66
955.687	1283.91
955.971	1270
956.254	1254.21
956.538	1242.73
956.821	1239.47
957.105	1234.72
957.388	1229.43
957.671	1221.53
957.954	1211.22
958.237	1198.93
958.52	1184.36
958.803	1164.13
959.086	1149.02
959.369	1131.06
959.652	1120.6
959.934	1111.7
960.217	1104.07
960.499	1097.47
960.782	1092.11
961.064	1089.88
961.346	1082.54
961.629	1070.85
961.911	1056.53
962.193	1040.36
962.475	1024.81
962.757	1014.22
963.039	1005.24
963.32	994.73
963.602	984.23
963.884	972.49
964.165	968.59
964.447	964.76
964.728	956.91
965.01	952.98
965.291	944.7
965.572	932.77
965.853	927.31
966.134	917.74
966.415	913.44
966.696	907.71
966.977	903.61
967.258	901.94
967.539	892.63
967.819	889.59
968.1	881.17
968.38	867.68
968.661	856.82
968.941	843.64
969.222	838.31
969.502	829.76
969.782	824.8
970.062	821.33
970.342	817.66
970.622	810.07
970.902	804.89
971.182	797.3
971.462	788.47
971.741	782.1
972.021	773.01
972.3	764.13
972.58	755.79
972.859	746.58
973.138	742.51
973.418	736.35
973.697	731.07
973.976	725.61
974.255	719.21
974.534	713.7
974.813	706.66
975.092	697.9
975.37	691.84
975.649	687.23
975.928	677.95
976.206	675
976.485	667.86
976.763	661.92
977.041	657.79
977.32	653.43
977.598	649.18
977.876	646.49
978.154	643.25
978.432	634.87
978.71	632.19
978.988	625.99
979.265	622.68
979.543	620.78
979.821	612.99
980.098	611.63
980.376	607.94
980.653	603.07
980.93	598.7
981.208	597.94
981.485	593.66
981.762	590.37
982.039	586.39
982.316	582.41
982.593	578.7
982.87	573.59
983.146	569.82
983.423	566.34
983.7	560.55
983.976	557.3
984.253	551.94
984.529	552.6
984.805	547.09
985.082	544.37
985.358	540.05
985.634	536.64
985.91	530.68
986.186	529.65
986.462	523.27
986.738	523.28
987.013	521.19
987.289	517.78
987.565	514.07
987.84	511.63
988.116	510.69
988.391	507.41
988.666	503.34
988.942	498.69
989.217	498.14
989.492	496.4
989.767	495.71
990.042	494.6
990.317	488.68
990.592	490.41
990.866	487.96
991.141	482.92
991.416	482.58
991.69	475.73
991.964	475.51
992.239	470.86
992.513	470.23
992.787	467.18
993.062	465.65
993.336	461.09
993.61	460.09
993.884	457.76
994.158	458.53
994.431	457.13
994.705	455
994.979	453.1
995.252	449.67
995.526	447.72
995.799	445.3
996.073	441.91
996.346	442.95
996.619	439.57
996.892	440.64
997.165	441.58
997.438	439.91
997.711	436.99
997.984	437.53
998.257	431.82
998.53	430.3
998.802	427.81
999.075	429.59
999.347	426.65
999.62	423.36
999.892	421.66
1000.165	418.59
1000.437	418.7
1000.709	418.97
1000.981	418.55
1001.253	412.77
1001.525	412.32
1001.797	412.72
1002.068	412.41
1002.34	409.27
1002.612	409.5
1002.883	407.01
1003.155	406.57
1003.426	405.46
1003.698	402.83
1003.969	402.99
1004.24	404.02
1004.511	402.43
1004.782	399.82
1005.053	398.41
1005.324	399.53
1005.595	398.48
1005.866	397.23
1006.136	396.58
1006.407	393.92
1006.678	391.82
1006.948	393.06
1007.218	392.28
1007.489	389.01
1007.759	388.68
1008.029	387.81
1008.299	390.71
1008.569	387.66
1008.839	387.39
1009.109	386.58
1009.379	384.72
1009.649	383.66
1009.918	384.21
1010.188	381.64
1010.458	380.5
1010.727	382.04
1010.996	380.32
1011.266	382.04
1011.535	378.87
1011.804	377.71
1012.073	378.82
1012.342	378.26
1012.611	378.28
1012.88	376.73
1013.149	379.38
1013.417	375.52
1013.686	376.79
1013.955	373.7
1014.223	373.75
1014.492	374.08
1014.76	373.42
1015.028	373.86
1015.296	374.4
1015.565	372.74
1015.833	371.75
1016.101	371.24
1016.368	368.49
1016.636	369.93
1016.904	369.92
1017.172	371.25
1017.439	370.44
1017.707	369.38
1017.974	368.74
1018.242	368.19
1018.509	367.94
1018.776	367.93
1019.044	366.87
1019.311	367.97
1019.578	367.45
1019.845	366.92
1020.112	367.14
1020.378	367.14
1020.645	367.14
