Data from 190524_Kr_44K_no_film_FLMS138901_15-46-05-147.txt Node
Date: Wed May 29 15:46:05 EDT 2019
User: pSAM
Spectrometer: FLMS13890
Trigger mode: 0
Integration Time (sec): 4.000000E-3
Scans to average: 1000
Electric dark correction enabled: true
Nonlinearity correction enabled: false
Boxcar width: 0
XAxis mode: Wavelengths
Number of Pixels in Spectrum: 2048
>>>>>Begin Spectral Data<<<<<
342.097	-56.4
342.483	-56.4
342.868	-56.4
343.254	-98.61
343.639	-100.74
344.025	-98.11
344.41	-95.96
344.796	-87.04
345.181	-78.21
345.567	-65.06
345.952	-52.27
346.337	-36.8
346.722	-20.79
347.107	0.2
347.493	17.43
347.878	39.15
348.263	55.3
348.648	74.71
349.033	97.99
349.418	116.08
349.802	133.36
350.187	153.76
350.572	169.59
350.957	242.5
351.342	406.54
351.726	432.84
352.111	450.45
352.495	465.07
352.88	476.27
353.264	489.62
353.649	504.74
354.033	514.67
354.418	526.35
354.802	535.06
355.186	544.65
355.57	553.45
355.955	561.48
356.339	564.66
356.723	569.86
357.107	576.57
357.491	581.58
357.875	582.71
358.259	585.01
358.643	587.78
359.026	590.98
359.41	590.86
359.794	594.63
360.178	594.48
360.561	596.55
360.945	595.74
361.329	597.06
361.712	598.5
362.096	597.79
362.479	597.66
362.862	597.25
363.246	598.07
363.629	596.02
364.012	594.89
364.396	594.55
364.779	600.99
365.162	599.78
365.545	600.19
365.928	600.5
366.311	599.54
366.694	602.42
367.077	607.43
367.46	610.76
367.843	608.72
368.226	607.99
368.608	609.83
368.991	613.02
369.374	615.07
369.756	615.86
370.139	613.02
370.521	614.71
370.904	616.96
371.286	616.38
371.669	617.55
372.051	619.27
372.433	624.17
372.816	626.14
373.198	624.3
373.58	631.5
373.962	631.11
374.344	636.45
374.726	638.2
375.108	638.77
375.49	644.09
375.872	647.17
376.254	646.48
376.636	644.56
377.018	649.75
377.399	649.34
377.781	651.3
378.163	648.41
378.544	645.59
378.926	645.14
379.307	656.01
379.689	667.72
380.07	676.84
380.452	679.78
380.833	683.87
381.214	682.7
381.596	683.46
381.977	688.13
382.358	699.1
382.739	711.91
383.12	718.05
383.501	712.32
383.882	707.49
384.263	710.58
384.644	709.74
385.025	714.68
385.406	718.12
385.787	722.32
386.167	725.67
386.548	732.54
386.929	739.23
387.309	747.98
387.69	757.81
388.07	767.45
388.451	770.97
388.831	776.11
389.211	766.27
389.592	760.46
389.972	761.18
390.352	764.11
390.733	765.62
391.113	769.93
391.493	778.33
391.873	788.56
392.253	793.52
392.633	810.53
393.013	819.43
393.393	822.04
393.772	816.26
394.152	821.71
394.532	825.42
394.912	826.71
395.291	826.68
395.671	828.99
396.05	817.72
396.43	823.39
396.809	822.87
397.189	834.77
397.568	846.15
397.948	850.45
398.327	861.9
398.706	869.98
399.085	873.05
399.465	868.89
399.844	865.16
400.223	856.58
400.602	861.09
400.981	861.99
401.36	863.36
401.739	862.28
402.117	869.68
402.496	860.04
402.875	867.43
403.254	876.69
403.632	876.13
404.011	887.83
404.39	899.9
404.768	901.29
405.147	920.43
405.525	929.13
405.903	932.76
406.282	931.83
406.66	927.66
407.038	918.69
407.417	912.82
407.795	917.8
408.173	918.56
408.551	925.4
408.929	928.69
409.307	937.91
409.685	946.53
410.063	950.98
410.441	950.61
410.818	951.28
411.196	954.32
411.574	965.08
411.952	973.75
412.329	985.51
412.707	1009.05
413.084	1021.92
413.462	1020.57
413.839	1024.18
414.217	1007.36
414.594	1011.22
414.971	1014.82
415.349	1023.15
415.726	1026.62
416.103	1016.42
416.48	1024.25
416.857	1029.73
417.234	1044.74
417.611	1045.46
417.988	1047.75
418.365	1037.88
418.742	1040.25
419.119	1051.87
419.495	1057.21
419.872	1058.45
420.249	1087.11
420.625	1094.55
421.002	1114.76
421.379	1128.85
421.755	1146.96
422.131	1163.23
422.508	1165.47
422.884	1168.92
423.26	1171.27
423.637	1192.05
424.013	1163.09
424.389	1151.86
424.765	1145.45
425.141	1154.04
425.517	1147.02
425.893	1139.41
426.269	1139.98
426.645	1146.78
427.021	1187.84
427.397	1203.33
427.772	1218.08
428.148	1206.45
428.524	1208.32
428.899	1198.34
429.275	1217.58
429.651	1238.83
430.026	1262.22
430.401	1273.44
430.777	1271.55
431.152	1264.86
431.527	1250.7
431.903	1255.96
432.278	1247.34
432.653	1250.36
433.028	1265.12
433.403	1298.58
433.778	1340.74
434.153	1339.93
434.528	1321.48
434.903	1316.55
435.278	1328.94
435.653	1338.84
436.027	1344.87
436.402	1351.74
436.777	1364.47
437.151	1371.8
437.526	1381.08
437.9	1389.21
438.275	1410.36
438.649	1407.75
439.023	1417.27
439.398	1419.3
439.772	1415.22
440.146	1420.94
440.52	1448.64
440.895	1485.27
441.269	1529.2
441.643	1552.48
442.017	1537.79
442.391	1531.17
442.765	1529.77
443.138	1516.88
443.512	1545.48
443.886	1556.72
444.26	1556.87
444.633	1567.79
445.007	1566.68
445.38	1573.27
445.754	1572.85
446.127	1584.56
446.501	1583.26
446.874	1577.06
447.248	1575.76
447.621	1588.73
447.994	1586.1
448.367	1595.19
448.741	1600.57
449.114	1593.29
449.487	1607.92
449.86	1618.63
450.233	1620.08
450.606	1615.97
450.978	1606.48
451.351	1617.61
451.724	1616.14
452.097	1615.33
452.469	1625.96
452.842	1620.74
453.215	1631.03
453.587	1633.23
453.96	1648.74
454.332	1650.15
454.704	1668.26
455.077	1678.11
455.449	1691.72
455.821	1682.29
456.194	1711.99
456.566	1716.17
456.938	1741.49
457.31	1762.12
457.682	1797.3
458.054	1797.11
458.426	1821.8
458.798	1835.13
459.17	1841.26
459.541	1839.95
459.913	1827.3
460.285	1820.56
460.656	1830.96
461.028	1821.71
461.399	1842.76
461.771	1841.74
462.142	1862.56
462.514	1881.02
462.885	1908.73
463.256	1965.49
463.628	1989.39
463.999	2008.48
464.37	2058.66
464.741	2063.12
465.112	2044.54
465.483	2058.5
465.854	2076.95
466.225	2063.01
466.596	2051.13
466.967	2081.91
467.338	2090.14
467.708	2128.95
468.079	2144.37
468.45	2149.79
468.82	2148.15
469.191	2150.3
469.561	2159.03
469.932	2181.33
470.302	2174.75
470.673	2213.37
471.043	2234.3
471.413	2255.39
471.783	2289.93
472.154	2333.41
472.524	2359.56
472.894	2427.88
473.264	2450.73
473.634	2460.75
474.004	2464.57
474.374	2519.99
474.743	2540.55
475.113	2590.05
475.483	2607.78
475.853	2650.08
476.222	2681.71
476.592	2749.41
476.961	2728.26
477.331	2751.19
477.7	2789.13
478.07	2870.16
478.439	2880.97
478.808	2909.72
479.178	2939.24
479.547	3007.22
479.916	3037.18
480.285	3102.57
480.654	3117.1
481.023	3160.11
481.392	3200.35
481.761	3243.41
482.13	3277.86
482.499	3321.94
482.867	3361.45
483.236	3437.48
483.605	3507.72
483.973	3556.04
484.342	3640.91
484.71	3685.03
485.079	3897.1
485.447	4456.82
485.816	4926.18
486.184	5067.25
486.552	4587.93
486.921	4191.79
487.289	4003.38
487.657	3993.14
488.025	3995.07
488.393	4006.72
488.761	4034.67
489.129	4119.19
489.497	4151.49
489.865	4255.42
490.233	4283.66
490.6	4340.77
490.968	4350.09
491.336	4371.52
491.703	4396.05
492.071	4446.25
492.438	4496.36
492.806	4536.71
493.173	4609.84
493.541	4623.07
493.908	4632.3
494.275	4659.34
494.642	4683.15
495.01	4693.29
495.377	4722.23
495.744	4752.38
496.111	4856.12
496.478	4927.49
496.845	4929.44
497.211	4921.76
497.578	4935.67
497.945	4983.68
498.312	5071.22
498.678	5130.3
499.045	5205.01
499.412	5191.34
499.778	5201.94
500.145	5217.26
500.511	5222.48
500.878	5293.41
501.244	5365.36
501.61	5402.32
501.976	5385.32
502.343	5412.71
502.709	5488.32
503.075	5483.24
503.441	5497.41
503.807	5515.76
504.173	5502.56
504.539	5523.77
504.905	5570.65
505.27	5643.09
505.636	5673.45
506.002	5734.21
506.367	5732.21
506.733	5740.03
507.099	5725.99
507.464	5772.22
507.829	5796.74
508.195	5877.77
508.56	5880.48
508.926	5881.56
509.291	5872.62
509.656	5911.84
510.021	5936.83
510.386	5979.04
510.751	6012.69
511.116	6073.94
511.481	6096.95
511.846	6144.48
512.211	6142
512.576	6177.37
512.941	6185.47
513.305	6213.36
513.67	6256.18
514.035	6269.11
514.399	6309.04
514.764	6299.89
515.128	6335.28
515.493	6369.46
515.857	6407.88
516.221	6427.36
516.585	6461.18
516.95	6503.18
517.314	6534.98
517.678	6531.07
518.042	6548.13
518.406	6620.64
518.77	6612.86
519.134	6681.28
519.498	6739.84
519.862	6741.3
520.225	6703.83
520.589	6754.64
520.953	6816.81
521.316	6861.74
521.68	6853.5
522.043	6874.8
522.407	6872.08
522.77	6908.4
523.134	6992.4
523.497	6984.09
523.86	7043.28
524.223	7098.84
524.587	7128.39
524.95	7168.26
525.313	7215.52
525.676	7252.98
526.039	7293.42
526.402	7306.79
526.765	7374.26
527.127	7422.08
527.49	7444.28
527.853	7499.24
528.215	7502.15
528.578	7574.41
528.941	7596.77
529.303	7625.99
529.666	7648.89
530.028	7681.88
530.39	7716.15
530.753	7736.96
531.115	7789.32
531.477	7851.33
531.839	7911.83
532.201	7938.63
532.564	8012.79
532.926	8085.36
533.287	8197
533.649	8238.59
534.011	8295.6
534.373	8337.87
534.735	8385.86
535.097	8409.36
535.458	8430.7
535.82	8458.83
536.181	8479.65
536.543	8523.81
536.904	8499.87
537.266	8644.21
537.627	8728.96
537.988	8760.87
538.35	8809.36
538.711	8873.5
539.072	8911.54
539.433	8890.46
539.794	8958.7
540.155	9002.77
540.516	9057.66
540.877	9070.89
541.238	9118.75
541.599	9214.33
541.959	9233.38
542.32	9329.89
542.681	9369.39
543.041	9356.2
543.402	9409.05
543.762	9491.68
544.123	9530.84
544.483	9600.37
544.844	9625.89
545.204	9663.74
545.564	9645.79
545.924	9671.6
546.284	9699.87
546.644	9762.2
547.004	9839.68
547.364	9928.63
547.724	9982.31
548.084	9945.08
548.444	10025.5
548.804	10000.32
549.164	10048.78
549.523	10079.58
549.883	10115.79
550.242	10153.59
550.602	10200.3
550.961	10236.1
551.321	10237.81
551.68	10305.67
552.04	10343.87
552.399	10463.28
552.758	10454.53
553.117	10410.38
553.476	10543.41
553.835	10625.47
554.194	10681.7
554.553	10623.61
554.912	10646.28
555.271	10716.13
555.63	10778.95
555.989	10807.48
556.347	10835.66
556.706	10878.06
557.065	10884.15
557.423	10933.77
557.782	10985.79
558.14	11018.05
558.499	11058.99
558.857	11076.96
559.215	11049.51
559.573	11114.08
559.932	11156.39
560.29	11257.22
560.648	11302.89
561.006	11357.29
561.364	11383.32
561.722	11415.8
562.08	11447.89
562.438	11421.58
562.795	11497.36
563.153	11517.69
563.511	11566.36
563.868	11653.24
564.226	11683.11
564.583	11766.19
564.941	11716.48
565.298	11866.23
565.656	11837.02
566.013	11857.25
566.37	11926.22
566.727	12029.39
567.085	12176.31
567.442	12312.81
567.799	12446.37
568.156	12465.27
568.513	12640.49
568.87	12764.36
569.226	13069.85
569.583	13268.83
569.94	13300.26
570.297	13313.01
570.653	13323.41
571.01	13461.41
571.366	13775.57
571.723	13894.29
572.079	13847.49
572.436	13732.77
572.792	13806.83
573.148	14134.72
573.505	14351.5
573.861	14600.86
574.217	14496.12
574.573	14571.25
574.929	14460.2
575.285	14545.4
575.641	14590.16
575.997	14764.58
576.352	14918.61
576.708	14973.3
577.064	15199.62
577.42	15626.94
577.775	15895.92
578.131	15817.33
578.486	15485.03
578.842	15139.51
579.197	15377.67
579.552	15539.62
579.908	15902.98
580.263	15909.89
580.618	15802.53
580.973	16277.35
581.328	17054.27
581.683	17726.1
582.038	17474.28
582.393	16537.83
582.748	15883.38
583.103	15424.65
583.458	15235.28
583.812	15487.76
584.167	15880.45
584.522	16244.25
584.876	16380.63
585.231	16526.27
585.585	16466.62
585.939	16099
586.294	15879.28
586.648	15821.99
587.002	15901.12
587.356	16319.39
587.711	16631.56
588.065	16663.88
588.419	16586.11
588.773	16326.01
589.127	15972.84
589.48	15812.15
589.834	15578.66
590.188	15651.2
590.542	15638.9
590.895	15580.02
591.249	15720.38
591.603	15668.51
591.956	15721.81
592.309	16036.32
592.663	16322.93
593.016	16730.23
593.369	16800.25
593.723	16553.42
594.076	16349.36
594.429	16474.27
594.782	16755.69
595.135	16981.69
595.488	16901.03
595.841	16595.46
596.194	16438.65
596.547	16332.84
596.899	16325.57
597.252	16432.93
597.605	16510.61
597.957	16486.99
598.31	16575.88
598.662	16846.07
599.015	16885.6
599.367	16896.52
599.719	16803.88
600.072	16870.38
600.424	16942.67
600.776	17198.03
601.128	17191.55
601.48	17255.02
601.832	17121.67
602.184	17251.57
602.536	17363.73
602.888	17718.96
603.24	18036.29
603.592	18033.48
603.943	17662.31
604.295	17349.61
604.646	17209.55
604.998	17352.85
605.349	17417.47
605.701	17498.32
606.052	17480.77
606.404	17464.56
606.755	17496.98
607.106	17601.07
607.457	17506.86
607.808	17543.23
608.159	17501.33
608.51	17544.05
608.861	17594.12
609.212	17520.92
609.563	17807.93
609.914	17951.87
610.265	17962.25
610.615	18017.68
610.966	17977.61
611.316	18052.4
611.667	18094.59
612.017	18112.94
612.368	17863.28
612.718	18163.5
613.068	18268.3
613.419	18297.28
613.769	18310.83
614.119	18312.56
614.469	18253.05
614.819	18100.32
615.169	18154.29
615.519	18343.82
615.869	18327.02
616.219	18115.67
616.568	18000.94
616.918	18104.63
617.268	18314.66
617.617	18357.62
617.967	18413.17
618.316	18325.06
618.666	18224.97
619.015	18303.53
619.364	18413.84
619.714	18686.25
620.063	18703.82
620.412	18571.87
620.761	18316.95
621.11	18330.8
621.459	18205.11
621.808	18416.9
622.157	18589.29
622.506	18658.28
622.855	18820.2
623.203	18838.44
623.552	18885.31
623.901	18830.53
624.249	18802.43
624.598	18845.08
624.946	18744.28
625.295	18676.86
625.643	18686.02
625.991	18828.6
626.34	18774.64
626.688	18801.87
627.036	18977.83
627.384	19017.6
627.732	19173.48
628.08	19031.89
628.428	18815.05
628.776	18910.06
629.124	19001
629.471	19025.99
629.819	19109.32
630.167	19029.53
630.514	19044.42
630.862	19014.72
631.209	19130.5
631.557	19174.85
631.904	19138.92
632.251	19157.57
632.599	19102.95
632.946	19249.79
633.293	19399.67
633.64	19399.45
633.987	19529
634.334	19525.8
634.681	19488.02
635.028	19658.23
635.375	19630.01
635.722	19706.7
636.068	19708.14
636.415	19832.24
636.762	19912.76
637.108	19914.66
637.455	19841.12
637.801	19980.41
638.147	20019.75
638.494	19937.76
638.84	20120.45
639.186	19991.33
639.532	19968.21
639.878	20054.24
640.225	20094.13
640.571	20170.09
640.916	20178.74
641.262	20185.87
641.608	20124.63
641.954	20272.75
642.3	20338.19
642.645	20314.29
642.991	20385.21
643.337	20584.33
643.682	20662.96
644.028	20613.69
644.373	20622.82
644.718	20575.83
645.064	20578.74
645.409	20570.6
645.754	20592.1
646.099	20657.04
646.444	20634.76
646.789	20714.12
647.134	20659.18
647.479	20739.94
647.824	20753.84
648.169	20763.89
648.513	20861.22
648.858	20817.03
649.203	20879.24
649.547	20866.59
649.892	20805.01
650.236	20810.89
650.581	20771.18
650.925	20773.92
651.269	20816.56
651.613	20950.72
651.958	20855.06
652.302	20932.5
652.646	20965.91
652.99	20872.31
653.334	21029.15
653.678	20842.13
654.022	20903.2
654.365	20823.75
654.709	20883.49
655.053	21047.13
655.396	23189.17
655.74	38222.08
656.083	49047.95
656.427	51757.48
656.77	40809.21
657.114	27407.52
657.457	23269.42
657.8	21957.18
658.143	21438.91
658.486	21276.98
658.83	21192.55
659.173	21083.6
659.516	21154.98
659.858	21156.47
660.201	21142.32
660.544	21100.37
660.887	21109.09
661.229	21230.51
661.572	21072.22
661.915	21130.01
662.257	21100.4
662.6	21200.92
662.942	21244.08
663.284	21189.2
663.627	21195.37
663.969	21158.57
664.311	21196.93
664.653	20999.16
664.995	21051.73
665.337	21177
665.679	21160.88
666.021	21130.66
666.363	21155.03
666.705	21389.99
667.046	21366.95
667.388	21358.1
667.73	21431.64
668.071	21439.61
668.413	21333.05
668.754	21423.08
669.096	21376.53
669.437	21461.66
669.778	21215.55
670.119	21092.14
670.461	20974.96
670.802	21133.72
671.143	21058.61
671.484	21164.01
671.825	21218.55
672.165	21224.22
672.506	21206.64
672.847	21125.99
673.188	21221.89
673.528	21164.5
673.869	21046.7
674.21	21121.86
674.55	21094.26
674.89	21046.66
675.231	21103.47
675.571	21111.5
675.911	21080.98
676.252	21224.74
676.592	21412.84
676.932	21228.44
677.272	21168.75
677.612	21277.47
677.952	21246.1
678.292	21223.07
678.631	21218.74
678.971	21146.48
679.311	21323.93
679.651	21398.63
679.99	21439
680.33	21460.21
680.669	21309.66
681.009	21219.24
681.348	21245.61
681.687	21381.31
682.026	21545
682.366	21445.48
682.705	21330.74
683.044	21323.27
683.383	21377.52
683.722	21446.48
684.061	21278.25
684.4	21313.39
684.738	21447.14
685.077	21512.72
685.416	21485.63
685.754	21490
686.093	21512.04
686.431	21645.49
686.77	21409.64
687.108	21456.03
687.447	21451.47
687.785	21537.08
688.123	21496.38
688.461	21535.67
688.799	21367.61
689.137	21374.11
689.475	21472.18
689.813	21310.42
690.151	21470.51
690.489	21493.06
690.827	21418.53
691.164	21453.85
691.502	21483.23
691.84	21385.47
692.177	21572.17
692.515	21639.65
692.852	21448.79
693.189	21675.65
693.527	21695.12
693.864	21660.13
694.201	21524.02
694.538	21387.78
694.875	21389.41
695.212	21339.45
695.549	21380.6
695.886	21250.23
696.223	21285.15
696.56	21490.25
696.897	21419.28
697.233	21480.69
697.57	21565.84
697.906	21719.71
698.243	21765.3
698.579	21496.97
698.916	21554.79
699.252	21417.7
699.588	21557.04
699.924	21614.09
700.261	21489.08
700.597	21376.21
700.933	21394.04
701.269	21183.64
701.605	21286.27
701.941	21227.93
702.276	21235.85
702.612	21253.89
702.948	21343.82
703.283	21269.23
703.619	21216.22
703.954	21224.52
704.29	21152.73
704.625	21203.12
704.961	21135.58
705.296	21188.28
705.631	21100.38
705.966	21093.92
706.301	21021.12
706.637	21012.65
706.972	21280.94
707.306	21324.07
707.641	21273.14
707.976	21202.27
708.311	21235.92
708.646	21223.28
708.98	21231.89
709.315	21169.12
709.649	21162.84
709.984	21322.17
710.318	21270.14
710.653	21302.53
710.987	21270.28
711.321	21286.41
711.655	21173.25
711.989	21163.84
712.324	21215.35
712.658	21082.56
712.992	21102.14
713.325	21058.64
713.659	21208.4
713.993	21043.51
714.327	21053.65
714.66	21176.24
714.994	21069.6
715.328	21091.1
715.661	21115.04
715.994	21097.87
716.328	20833.92
716.661	20944.27
716.994	20988.85
717.328	20815.93
717.661	20855.63
717.994	20855.05
718.327	20940.57
718.66	20854.63
718.993	20838.34
719.325	20889.08
719.658	20863.88
719.991	20820.29
720.324	20814.25
720.656	20587.75
720.989	20593.25
721.321	20727.62
721.654	20774.41
721.986	20592.8
722.318	20461.73
722.651	20540.23
722.983	20572.6
723.315	20560.41
723.647	20409.09
723.979	20360.68
724.311	20442.38
724.643	20465.33
724.975	20441.4
725.307	20384.57
725.638	20421.34
725.97	20436.9
726.302	20739.21
726.633	20553.6
726.965	20400.75
727.296	20241.86
727.628	20232.79
727.959	20059.78
728.29	20080.31
728.621	19839.94
728.952	19848.65
729.284	19787.08
729.615	19880.68
729.945	19702.74
730.276	19557.91
730.607	19676
730.938	19829.84
731.269	19844.95
731.599	19843.35
731.93	19730.07
732.261	19606.74
732.591	19688.45
732.922	19718.25
733.252	19603.48
733.582	19505.68
733.912	19500.37
734.243	19575.55
734.573	19597.38
734.903	19590.85
735.233	19202.06
735.563	19170.74
735.893	19355.27
736.223	19437.13
736.552	19346.14
736.882	19271.59
737.212	19202.91
737.541	19217.58
737.871	19195.14
738.2	19067.87
738.53	18836.78
738.859	18735.2
739.188	18723.06
739.518	18850.47
739.847	18943.89
740.176	18787.43
740.505	18780.15
740.834	18839.28
741.163	18721.93
741.492	18489.69
741.821	18365.61
742.15	18269.39
742.478	18363.45
742.807	18336.99
743.136	18295.32
743.464	18029.17
743.793	17995.39
744.121	18134.25
744.449	18207.98
744.778	18246.24
745.106	18215.79
745.434	18056.63
745.762	17840.08
746.09	17851.11
746.418	17783.93
746.746	17622.98
747.074	17462.61
747.402	17636.96
747.73	17704.71
748.057	17836.2
748.385	17668.84
748.712	17537.67
749.04	17561.39
749.367	17694.8
749.695	17671.95
750.022	17674.83
750.349	17538.45
750.677	17450.78
751.004	17369.68
751.331	17332.36
751.658	17326.69
751.985	17182.37
752.312	17035.71
752.639	17052.17
752.966	17103.6
753.292	16947.07
753.619	17072.22
753.946	16994.31
754.272	16909.23
754.599	16906.82
754.925	16892.25
755.251	16862.09
755.578	16815.61
755.904	16736.48
756.23	16677.05
756.556	16810.84
756.882	16918.9
757.208	16753.55
757.534	16668.9
757.86	16743.05
758.186	16883.8
758.512	16819.66
758.838	16659.22
759.163	16530.13
759.489	16501.31
759.814	16326.07
760.14	16453.91
760.465	16454.91
760.791	16166.48
761.116	16002.44
761.441	15935.76
761.766	16069.56
762.092	15996.4
762.417	15791.14
762.742	15708.83
763.066	15681.02
763.391	15875.28
763.716	15999.94
764.041	15888.08
764.366	15637.04
764.69	15542.13
765.015	15772.59
765.339	15868.57
765.664	15771.66
765.988	15513.1
766.312	15209.46
766.637	14997.61
766.961	14967.37
767.285	14983.09
767.609	14869.34
767.933	14704.12
768.257	14739.1
768.581	14794.73
768.905	14983.34
769.229	14993.36
769.552	14796.24
769.876	14743.34
770.2	14571.45
770.523	14636.6
770.847	14618.85
771.17	14637.74
771.493	14559.62
771.817	14437.12
772.14	14257.11
772.463	14257.44
772.786	14288.75
773.109	14198.18
773.432	14257.77
773.755	14126.22
774.078	14114.89
774.401	14134.21
774.724	14048.75
775.046	13963.83
775.369	13831.98
775.692	13697.29
776.014	13667.84
776.336	13661.7
776.659	13679.23
776.981	13610.47
777.303	13477.7
777.626	13428.89
777.948	13468.52
778.27	13562.01
778.592	13532.08
778.914	13471.3
779.236	13329.17
779.557	13334.53
779.879	13516.6
780.201	13560.3
780.523	13545.1
780.844	13390.57
781.166	13368.2
781.487	13344.55
781.809	13374.51
782.13	13425.87
782.451	13286.62
782.772	13259.85
783.094	13182.19
783.415	13337.44
783.736	13363.08
784.057	13498.75
784.378	13475.46
784.698	13293.96
785.019	13309.7
785.34	13210.85
785.661	13378.07
785.981	13531.44
786.302	13472.81
786.622	13340.37
786.943	13339.45
787.263	13332.96
787.583	13524.83
787.903	13629.34
788.224	13541.28
788.544	13488.01
788.864	13374.97
789.184	13527.22
789.504	13594.45
789.824	13635.67
790.143	13519.64
790.463	13417.89
790.783	13332.07
791.102	13375.25
791.422	13549.84
791.741	13590.54
792.061	13540.86
792.38	13541.24
792.699	13415.66
793.019	13473.45
793.338	13505.48
793.657	13561.91
793.976	13720.48
794.295	13599.96
794.614	13542.25
794.933	13491.42
795.252	13554.27
795.57	13533.21
795.889	13497.99
796.208	13356.04
796.526	13095.83
796.845	13095.85
797.163	13042.27
797.482	13155.28
797.8	13252.34
798.118	13148.18
798.436	13023
798.754	12966.7
799.073	12965.05
799.391	13064.76
799.708	13144.63
800.026	13137.41
800.344	13070.98
800.662	12985.83
800.98	12924.7
801.297	12983.03
801.615	13064.68
801.932	13030.15
802.25	12783.67
802.567	12526.94
802.884	12483.21
803.202	12503.48
803.519	12587.02
803.836	12637.63
804.153	12491.32
804.47	12329.37
804.787	12155.46
805.104	12147.46
805.421	12335.15
805.737	12382.4
806.054	12303.39
806.371	12207.69
806.687	12144.59
807.004	12042.59
807.32	12062.85
807.637	12097.33
807.953	12083.82
808.269	12051.64
808.585	11998.46
808.902	11844.58
809.218	11938.33
809.534	12051.06
809.85	12109.41
810.165	11987.4
810.481	11908.72
810.797	11811.44
811.113	11713.87
811.428	11724.71
811.744	11754.83
812.059	11748.42
812.375	11633.12
812.69	11458.71
813.006	11333.82
813.321	11399.94
813.636	11416.77
813.951	11486.88
814.266	11452.58
814.581	11370.25
814.896	11235.1
815.211	11231.11
815.526	11328.83
815.841	11329.39
816.155	11338.07
816.47	11185.49
816.784	11087.43
817.099	10976.11
817.413	10959.62
817.728	11036.84
818.042	11049.76
818.356	11061.18
818.67	10945.14
818.985	10828.71
819.299	10744.42
819.613	10837.74
819.926	10813.41
820.24	10940.18
820.554	11013.54
820.868	10943.91
821.182	10714.49
821.495	10709.05
821.809	10699.45
822.122	10718.53
822.436	10698.38
822.749	10532.97
823.062	10348.92
823.376	10285.3
823.689	10330.94
824.002	10363.64
824.315	10311.06
824.628	10303.55
824.941	10213.57
825.254	9935.56
825.566	9756.61
825.879	9813.95
826.192	9849.44
826.504	9846.78
826.817	9875.82
827.129	9876.07
827.442	9707.48
827.754	9632.7
828.066	9676.84
828.379	9705.8
828.691	9794.82
829.003	9772.93
829.315	9741.01
829.627	9637.59
829.939	9496.29
830.251	9516.85
830.562	9531.66
830.874	9612.14
831.186	9584.4
831.497	9550.33
831.809	9380.41
832.12	9267.9
832.432	9202.92
832.743	9296.12
833.054	9386.41
833.365	9355.38
833.676	9303.66
833.988	9174.9
834.299	9105.38
834.61	9104.35
834.92	9163.42
835.231	9261.65
835.542	9269.35
835.853	9166.23
836.163	9040.25
836.474	8910.98
836.784	8816.2
837.095	8830.56
837.405	8860.94
837.715	8892.18
838.026	8868.07
838.336	8774.11
838.646	8679.92
838.956	8569.01
839.266	8593.31
839.576	8611.3
839.886	8689.74
840.195	8684.25
840.505	8582.84
840.815	8462.04
841.124	8359.9
841.434	8335.09
841.743	8383.52
842.053	8485.48
842.362	8418.44
842.671	8342.24
842.981	8266.89
843.29	8142.85
843.599	8130.82
843.908	8146.72
844.217	8200.75
844.526	8239.19
844.835	8174.55
845.143	8048.94
845.452	7890.91
845.761	7862.01
846.069	7829.55
846.378	7963.66
846.686	7970.77
846.995	7912.51
847.303	7804.84
847.611	7752.41
847.919	7693.33
848.227	7745.8
848.535	7771.45
848.843	7783.93
849.151	7757.45
849.459	7717.99
849.767	7576.84
850.075	7483.54
850.382	7430.56
850.69	7452.28
850.998	7487.95
851.305	7493.92
851.612	7523.08
851.92	7494.2
852.227	7419.02
852.534	7353.43
852.841	7376.63
853.148	7433.29
853.455	7544.89
853.762	7507.66
854.069	7413.85
854.376	7248.06
854.683	7128.76
854.99	7058.09
855.296	7079.78
855.603	7098.54
855.909	7128.6
856.216	7125.33
856.522	7074.5
856.828	6990.52
857.135	6885.47
857.441	6874.09
857.747	6865.74
858.053	6928.64
858.359	6866.76
858.665	6878.11
858.971	6784.36
859.276	6677.66
859.582	6564.99
859.888	6554.44
860.193	6544.35
860.499	6597.47
860.804	6634.27
861.11	6540.71
861.415	6449.59
861.72	6337.15
862.026	6222.98
862.331	6240.26
862.636	6278.49
862.941	6326.53
863.246	6317.57
863.551	6298.74
863.855	6232.77
864.16	6155.28
864.465	6083.91
864.769	6069.79
865.074	6066.67
865.378	6059.86
865.683	6030.27
865.987	6025.79
866.291	5905.57
866.596	5849.23
866.9	5788.45
867.204	5779.85
867.508	5797.88
867.812	5837.38
868.116	5854.83
868.42	5774.08
868.723	5714.65
869.027	5674.45
869.331	5632.03
869.634	5652.72
869.938	5640.8
870.241	5645.82
870.544	5622.29
870.848	5567.16
871.151	5490.74
871.454	5407.11
871.757	5341.72
872.06	5311.13
872.363	5306.03
872.666	5372.2
872.969	5369.32
873.272	5349.64
873.574	5306.81
873.877	5275.65
874.18	5231.56
874.482	5221.87
874.785	5256.47
875.087	5254
875.389	5275.36
875.692	5244.36
875.994	5178.36
876.296	5100.33
876.598	5038.88
876.9	5002.7
877.202	5014.09
877.504	5048.31
877.805	5069.74
878.107	5083.87
878.409	5008.39
878.71	4976.24
879.012	4915.89
879.313	4871.82
879.615	4888.9
879.916	4883.07
880.217	4891.35
880.518	4892.33
880.82	4874.97
881.121	4794.03
881.422	4710.88
881.723	4643.87
882.023	4600.48
882.324	4640.22
882.625	4649.81
882.926	4662.89
883.226	4670.18
883.527	4579.19
883.827	4533.7
884.128	4489.82
884.428	4479.96
884.728	4454.58
885.028	4466.42
885.328	4466.41
885.629	4439.94
885.929	4431.74
886.228	4367.73
886.528	4270.64
886.828	4195.6
887.128	4160.81
887.427	4148.57
887.727	4168.32
888.027	4188.42
888.326	4208.34
888.625	4177.22
888.925	4094.93
889.224	4055.63
889.523	4032.59
889.822	4023
890.121	4040.11
890.42	4048.76
890.719	4064.53
891.018	4014.22
891.317	4002.76
891.616	3974.19
891.914	3927.48
892.213	3909.89
892.512	3914.27
892.81	3932.94
893.108	3964.07
893.407	3994.49
893.705	4013.33
894.003	3974.01
894.301	3929.69
894.599	3889.15
894.897	3877.56
895.195	3881.22
895.493	3868.17
895.791	3909.03
896.089	3929.87
896.386	3900.22
896.684	3877.33
896.981	3828.22
897.279	3803.46
897.576	3818.15
897.874	3792.81
898.171	3836.59
898.468	3882.11
898.765	3893.61
899.062	3909.6
899.359	3848.71
899.656	3801.47
899.953	3747.86
900.25	3720.4
900.547	3716.16
900.843	3737.58
901.14	3777.05
901.436	3813.54
901.733	3827.87
902.029	3809.77
902.325	3784.64
902.622	3732.68
902.918	3722.92
903.214	3738.96
903.51	3746.51
903.806	3785.18
904.102	3785.25
904.398	3770.93
904.694	3716.56
904.989	3701.62
905.285	3636.51
905.581	3594.58
905.876	3593.64
906.171	3586.61
906.467	3597.18
906.762	3607.59
907.057	3591.93
907.353	3571.8
907.648	3524.08
907.943	3507.89
908.238	3492.58
908.533	3473.76
908.827	3470
909.122	3470.27
909.417	3486.34
909.711	3486.26
910.006	3444.91
910.301	3395.27
910.595	3384.4
910.889	3388.67
911.184	3348.85
911.478	3369.1
911.772	3381.33
912.066	3370.06
912.36	3339.32
912.654	3297.85
912.948	3253.01
913.242	3237.06
913.536	3188.64
913.829	3166.58
914.123	3171.49
914.416	3160.75
914.71	3181.84
915.003	3194.31
915.297	3165.32
915.59	3130.06
915.883	3096.17
916.176	3073.73
916.469	3052.75
916.762	3061.77
917.055	3058.66
917.348	3050.5
917.641	3054.92
917.934	3031.78
918.226	2992.02
918.519	2950.55
918.811	2912.89
919.104	2884.56
919.396	2859.7
919.689	2855.08
919.981	2857.74
920.273	2855.7
920.565	2855.97
920.857	2816.15
921.149	2775.45
921.441	2732.18
921.733	2702.51
922.025	2670.69
922.316	2668.62
922.608	2685.36
922.9	2688.67
923.191	2692.05
923.483	2700.02
923.774	2669.64
924.065	2651.27
924.357	2612.77
924.648	2570.11
924.939	2544.72
925.23	2530.01
925.521	2527.4
925.812	2525.16
926.102	2511.3
926.393	2484.46
926.684	2457.96
926.975	2415.52
927.265	2377.17
927.556	2350.66
927.846	2325.72
928.136	2311.2
928.427	2308.87
928.717	2314.26
929.007	2316.17
929.297	2301.9
929.587	2278.76
929.877	2261.43
930.167	2237.73
930.457	2207.16
930.746	2177.35
931.036	2167.75
931.325	2150.76
931.615	2139.95
931.904	2139.48
932.194	2109.11
932.483	2080.79
932.772	2057.81
933.062	2036.66
933.351	2006.43
933.64	1976.17
933.929	1981.16
934.218	1978.68
934.506	1978.58
934.795	1972.86
935.084	1962.72
935.372	1942.92
935.661	1916.23
935.949	1883.98
936.238	1871.44
936.526	1845.44
936.815	1835.79
937.103	1837.84
937.391	1835.25
937.679	1821.35
937.967	1800.56
938.255	1782.57
938.543	1762.26
938.831	1734.37
939.118	1718.64
939.406	1698.05
939.693	1683.06
939.981	1667.08
940.268	1668.51
940.556	1659.32
940.843	1656.11
941.13	1642.4
941.418	1622.98
941.705	1595.68
941.992	1569.83
942.279	1549.3
942.566	1529.88
942.852	1518.26
943.139	1509.07
943.426	1507.3
943.712	1499.27
943.999	1489.18
944.285	1477.04
944.572	1458.27
944.858	1436.68
945.144	1423.38
945.431	1401.99
945.717	1387.51
946.003	1384.62
946.289	1377.41
946.575	1368.98
946.861	1358.06
947.146	1347.91
947.432	1339.9
947.718	1321.62
948.003	1304.45
948.289	1294.83
948.574	1273.06
948.86	1257.59
949.145	1250.06
949.43	1241.6
949.715	1241.65
950	1234.86
950.285	1230.73
950.57	1218.59
950.855	1206.42
951.14	1189.6
951.425	1181.13
951.709	1163.97
951.994	1154.96
952.278	1147.87
952.563	1137.67
952.847	1126.99
953.132	1120.78
953.416	1120.86
953.7	1108.81
953.984	1095.26
954.268	1083.37
954.552	1070.36
954.836	1059.01
955.12	1045.81
955.404	1042.04
955.687	1030.59
955.971	1028.82
956.254	1022.05
956.538	1011.46
956.821	1000.94
957.105	987.17
957.388	979.07
957.671	964.18
957.954	958.22
958.237	952.24
958.52	945.06
958.803	941.5
959.086	936.58
959.369	930.71
959.652	922.53
959.934	915.76
960.217	905.26
960.499	900.19
960.782	885.65
961.064	878.86
961.346	871.67
961.629	864.24
961.911	860.29
962.193	855.22
962.475	852.42
962.757	844.84
963.039	837.56
963.32	831.98
963.602	817.73
963.884	808.78
964.165	799.7
964.447	794.03
964.728	786.26
965.01	782.19
965.291	772.99
965.572	769.65
965.853	763.53
966.134	750.16
966.415	747.7
966.696	738.91
966.977	728.08
967.258	724.75
967.539	716.09
967.819	710.4
968.1	706.72
968.38	699.51
968.661	696.3
968.941	687.81
969.222	686.61
969.502	682.75
969.782	677.61
970.062	671.35
970.342	664.24
970.622	658.07
970.902	653.67
971.182	650.25
971.462	648.07
971.741	642.99
972.021	638.04
972.3	635.87
972.58	630.31
972.859	624.17
973.138	618.16
973.418	615.63
973.697	609.86
973.976	602.69
974.255	597.47
974.534	592.49
974.813	590.1
975.092	585.09
975.37	584.53
975.649	580.93
975.928	572.73
976.206	570.02
976.485	564
976.763	558.43
977.041	558.36
977.32	552.63
977.598	548.51
977.876	547.14
978.154	546.36
978.432	544.74
978.71	544.19
978.988	542.23
979.265	537.91
979.543	536.37
979.821	528.28
980.098	525.92
980.376	518.58
980.653	517.13
980.93	513.23
981.208	511.63
981.485	507.48
981.762	505.57
982.039	502.08
982.316	498.43
982.593	499.25
982.87	495.38
983.146	491.63
983.423	484.55
983.7	485.51
983.976	480.98
984.253	478.06
984.529	478.33
984.805	475.46
985.082	474.6
985.358	469.63
985.634	470.57
985.91	465.34
986.186	464.5
986.462	460.21
986.738	458.85
987.013	458.64
987.289	453.02
987.565	453.05
987.84	451.3
988.116	448.95
988.391	447.79
988.666	446.34
988.942	444.27
989.217	440.74
989.492	437.77
989.767	437.28
990.042	435.49
990.317	432.87
990.592	429.3
990.866	430
991.141	429.02
991.416	425.83
991.69	424.58
991.964	424.81
992.239	421.58
992.513	420.36
992.787	420.79
993.062	418.15
993.336	416.51
993.61	415.55
993.884	416.84
994.158	413.17
994.431	412.73
994.705	409.95
994.979	409.46
995.252	406.36
995.526	407.17
995.799	406.54
996.073	404.18
996.346	401.83
996.619	403.07
996.892	400.08
997.165	401.53
997.438	399.93
997.711	398.75
997.984	397.03
998.257	397.25
998.53	395.35
998.802	396.02
999.075	393.66
999.347	393.16
999.62	393.14
999.892	392.2
1000.165	391.76
1000.437	391.72
1000.709	391.86
1000.981	390.21
1001.253	387.36
1001.525	385.17
1001.797	384.67
1002.068	386.12
1002.34	383.53
1002.612	384.07
1002.883	382.21
1003.155	383.69
1003.426	381.54
1003.698	379.97
1003.969	380.55
1004.24	381.09
1004.511	379.05
1004.782	377.3
1005.053	378.68
1005.324	376.78
1005.595	376.65
1005.866	375.5
1006.136	375.53
1006.407	374.68
1006.678	375.5
1006.948	376.38
1007.218	374.17
1007.489	374.09
1007.759	373.88
1008.029	371.5
1008.299	371.32
1008.569	371.31
1008.839	374.01
1009.109	370.07
1009.379	370.88
1009.649	371.45
1009.918	371.39
1010.188	368.93
1010.458	369.63
1010.727	366.35
1010.996	367.12
1011.266	367.41
1011.535	368.28
1011.804	368.51
1012.073	365.97
1012.342	367.43
1012.611	364.63
1012.88	367.73
1013.149	367.3
1013.417	366.03
1013.686	365.62
1013.955	366.29
1014.223	365.3
1014.492	363.75
1014.76	364.59
1015.028	365.26
1015.296	363.43
1015.565	363.57
1015.833	363.23
1016.101	362.43
1016.368	363.29
1016.636	362.27
1016.904	362.98
1017.172	362.79
1017.439	360.14
1017.707	361.51
1017.974	359.67
1018.242	362.85
1018.509	361.31
1018.776	358.25
1019.044	362.98
1019.311	360.81
1019.578	360.1
1019.845	361.95
1020.112	359.22
1020.378	359.22
1020.645	359.22
