Data from 190403_Kr_No_Film_40K_FLMS138901_15-20-44-856.txt Node
Date: Wed Apr 03 15:20:44 EDT 2019
User: pSAM
Spectrometer: FLMS13890
Trigger mode: 0
Integration Time (sec): 7.000000E-3
Scans to average: 1000
Electric dark correction enabled: true
Nonlinearity correction enabled: false
Boxcar width: 0
XAxis mode: Wavelengths
Number of Pixels in Spectrum: 2048
>>>>>Begin Spectral Data<<<<<
342.097	-42.6
342.483	-42.6
342.868	-42.6
343.254	-88.87
343.639	-93.66
344.025	-95.87
344.41	-90.74
344.796	-84.12
345.181	-79.48
345.567	-64.08
345.952	-52.38
346.337	-35.69
346.722	-19.36
347.107	-2.03
347.493	16.83
347.878	36.11
348.263	55.25
348.648	75.55
349.033	93.51
349.418	112.76
349.802	133.74
350.187	148.87
350.572	167.12
350.957	257.13
351.342	461.55
351.726	493.24
352.111	510.03
352.495	527.1
352.88	541.49
353.264	553.44
353.649	572.24
354.033	581.74
354.418	594.16
354.802	607.24
355.186	615.75
355.57	624.98
355.955	632.13
356.339	637.93
356.723	648.88
357.107	652.78
357.491	656.65
357.875	662.13
358.259	664.33
358.643	669.63
359.026	669.37
359.41	673.79
359.794	676.14
360.178	681.19
360.561	679.86
360.945	679.83
361.329	683.09
361.712	683.03
362.096	683.37
362.479	685.93
362.862	688.01
363.246	688.64
363.629	685.64
364.012	688.26
364.396	688.99
364.779	692.11
365.162	691.29
365.545	696.9
365.928	699.32
366.311	701.88
366.694	704.36
367.077	703.3
367.46	705.44
367.843	707.59
368.226	707.69
368.608	707.24
368.991	710.89
369.374	712.07
369.756	714.47
370.139	714
370.521	715.2
370.904	720.57
371.286	720.29
371.669	719.8
372.051	723.44
372.433	725.18
372.816	727.21
373.198	730.91
373.58	734.72
373.962	738.57
374.344	741.41
374.726	746.17
375.108	745.87
375.49	748.09
375.872	749.08
376.254	745.41
376.636	749.97
377.018	752.36
377.399	756.04
377.781	759.14
378.163	762.2
378.544	767.15
378.926	773.95
379.307	780.65
379.689	783.87
380.07	783.55
380.452	787.56
380.833	793.83
381.214	800.58
381.596	812.36
381.977	828.05
382.358	831.64
382.739	833.31
383.12	831.7
383.501	834.66
383.882	836.32
384.263	841.18
384.644	844.16
385.025	854.77
385.406	849.68
385.787	862.07
386.167	866.46
386.548	877.88
386.929	887.86
387.309	895.66
387.69	906.25
388.07	915.52
388.451	907.56
388.831	908.42
389.211	900.35
389.592	898.49
389.972	900.53
390.352	910.48
390.733	915.5
391.113	919.26
391.493	932.52
391.873	948.26
392.253	964.65
392.633	973.06
393.013	972.45
393.393	972.41
393.772	969.4
394.152	979.1
394.532	972.13
394.912	978.44
395.291	976.01
395.671	980.23
396.05	979.91
396.43	984.94
396.809	993.72
397.189	1009.81
397.568	1021.19
397.948	1025.43
398.327	1031.94
398.706	1037.9
399.085	1028.57
399.465	1026.09
399.844	1018.53
400.223	1013.61
400.602	1024.03
400.981	1023.29
401.36	1024.13
401.739	1026.48
402.117	1036.66
402.496	1031.81
402.875	1037.45
403.254	1052.44
403.632	1055.9
404.011	1068.21
404.39	1085.24
404.768	1095.17
405.147	1108.32
405.525	1107.83
405.903	1099.09
406.282	1099.77
406.66	1090.16
407.038	1077.43
407.417	1084.7
407.795	1096.75
408.173	1104.54
408.551	1107.32
408.929	1115.58
409.307	1116.76
409.685	1126.69
410.063	1127.7
410.441	1129.31
410.818	1135.79
411.196	1145.67
411.574	1169.94
411.952	1178.28
412.329	1198.22
412.707	1214.15
413.084	1208.23
413.462	1204.25
413.839	1209.67
414.217	1200.95
414.594	1208.81
414.971	1212.8
415.349	1215.27
415.726	1219.84
416.103	1214.59
416.48	1222.05
416.857	1231.32
417.234	1239.95
417.611	1242.57
417.988	1244.62
418.365	1237.99
418.742	1253.28
419.119	1273.44
419.495	1270.17
419.872	1282.37
420.249	1334.48
420.625	1350.39
421.002	1360.98
421.379	1365.19
421.755	1378.75
422.131	1402.77
422.508	1405.82
422.884	1406.56
423.26	1409.24
423.637	1403.23
424.013	1363.54
424.389	1364.55
424.765	1365.91
425.141	1373.4
425.517	1368.71
425.893	1369.4
426.269	1398.97
426.645	1429.79
427.021	1455.23
427.397	1443.95
427.772	1437.86
428.148	1441.53
428.524	1461.28
428.899	1468.79
429.275	1499.98
429.651	1514.07
430.026	1528.97
430.401	1525.07
430.777	1512.02
431.152	1495.37
431.527	1496.08
431.903	1499.99
432.278	1504.24
432.653	1533.7
433.028	1569.82
433.403	1594.27
433.778	1608.02
434.153	1583.38
434.528	1583.11
434.903	1587.42
435.278	1608.73
435.653	1616.91
436.027	1625.02
436.402	1625.89
436.777	1642.34
437.151	1653.34
437.526	1670.19
437.9	1681.56
438.275	1700.44
438.649	1692.69
439.023	1700.99
439.398	1695.13
439.772	1700.61
440.146	1740.97
440.52	1790.35
440.895	1819.09
441.269	1839.98
441.643	1831.82
442.017	1822.15
442.391	1827.62
442.765	1841.58
443.138	1832.76
443.512	1863.46
443.886	1860.43
444.26	1866.91
444.633	1870.67
445.007	1874.94
445.38	1883.15
445.754	1886.25
446.127	1895.17
446.501	1887.57
446.874	1881.13
447.248	1875.59
447.621	1899.61
447.994	1895.75
448.367	1912.8
448.741	1921.03
449.114	1902.46
449.487	1926.71
449.86	1919.1
450.233	1928.92
450.606	1915.85
450.978	1919.84
451.351	1931.37
451.724	1925.59
452.097	1926.25
452.469	1941.43
452.842	1942.29
453.215	1946.59
453.587	1948.67
453.96	1962.49
454.332	1974.36
454.704	1993.89
455.077	1993.62
455.449	2003.13
455.821	2013.67
456.194	2045.04
456.566	2053.25
456.938	2081.31
457.31	2120.92
457.682	2138.25
458.054	2144.49
458.426	2160.73
458.798	2157.61
459.17	2170.89
459.541	2160.73
459.913	2136.18
460.285	2153.7
460.656	2165.36
461.028	2163.66
461.399	2186.97
461.771	2177.13
462.142	2217.22
462.514	2274.37
462.885	2296.32
463.256	2341.51
463.628	2365.31
463.999	2397.7
464.37	2420.25
464.741	2433.28
465.112	2410.78
465.483	2413.03
465.854	2417.87
466.225	2415.13
466.596	2424.34
466.967	2466.01
467.338	2468.89
467.708	2515.83
468.079	2493.71
468.45	2500.9
468.82	2502.08
469.191	2520.86
469.561	2538.41
469.932	2580.07
470.302	2577.3
470.673	2612.69
471.043	2654.33
471.413	2685.18
471.783	2737.64
472.154	2804.48
472.524	2830.79
472.894	2883.02
473.264	2908.56
473.634	2903.43
474.004	2930.66
474.374	3003.47
474.743	3034.83
475.113	3094.05
475.483	3110.56
475.853	3165.12
476.222	3189.67
476.592	3244.83
476.961	3246.94
477.331	3322.02
477.7	3346.47
478.07	3393.65
478.439	3450.67
478.808	3495.91
479.178	3520.01
479.547	3607.64
479.916	3620.41
480.285	3712.24
480.654	3730.06
481.023	3785.8
481.392	3831.02
481.761	3873.33
482.13	3933.45
482.499	4007.33
482.867	4042.7
483.236	4151.35
483.605	4255.91
483.973	4300.02
484.342	4450.9
484.71	5002.53
485.079	5538.2
485.447	5852.84
485.816	5663.45
486.184	5266.89
486.552	4943.38
486.921	4787.61
487.289	4744.84
487.657	4772.23
488.025	4791.99
488.393	4836.35
488.761	4921.02
489.129	4992.05
489.497	5026.58
489.865	5111.04
490.233	5133.76
490.6	5190.29
490.968	5195.85
491.336	5239.27
491.703	5292.69
492.071	5378.57
492.438	5418.95
492.806	5449.7
493.173	5516.15
493.541	5539.69
493.908	5534.61
494.275	5573.71
494.642	5600.61
495.01	5658.93
495.377	5735.28
495.744	5813.55
496.111	5875.41
496.478	5881.27
496.845	5882.52
497.211	5913.17
497.578	6003.33
497.945	6069.55
498.312	6145.02
498.678	6162.67
499.045	6217.45
499.412	6197.69
499.778	6217.73
500.145	6276.71
500.511	6358.74
500.878	6406.32
501.244	6456.75
501.61	6476.54
501.976	6467.3
502.343	6532.14
502.709	6606.96
503.075	6607.18
503.441	6609.96
503.807	6611.44
504.173	6644.93
504.539	6709.73
504.905	6762.65
505.27	6799.74
505.636	6835.87
506.002	6878.46
506.367	6849.63
506.733	6885.11
507.099	6901.44
507.464	6967.49
507.829	7003.37
508.195	7034.08
508.56	7074.74
508.926	7071.1
509.291	7103.06
509.656	7161.46
510.021	7222.35
510.386	7265.35
510.751	7307.35
511.116	7335.07
511.481	7364.17
511.846	7401.59
512.211	7414.55
512.576	7457.03
512.941	7465.5
513.305	7517.44
513.67	7574.5
514.035	7561.65
514.399	7596.03
514.764	7604.84
515.128	7647.65
515.493	7675.15
515.857	7721.24
516.221	7717.5
516.585	7767.61
516.95	7796.54
517.314	7839.98
517.678	7871.61
518.042	7897.07
518.406	8005.28
518.77	8030.8
519.134	8038.4
519.498	8079.24
519.862	8090.75
520.225	8111.56
520.589	8192.84
520.953	8207.52
521.316	8241.23
521.68	8239.72
522.043	8298.31
522.407	8300.92
522.77	8321.52
523.134	8446.6
523.497	8471.74
523.86	8514.31
524.223	8546.53
524.587	8597.86
524.95	8650.18
525.313	8716.96
525.676	8751.37
526.039	8820.74
526.402	8800.24
526.765	8876.85
527.127	8909.54
527.49	8959.54
527.853	9010.6
528.215	9067.16
528.578	9166.34
528.941	9170.91
529.303	9218.21
529.666	9258.08
530.028	9310.97
530.39	9327.7
530.753	9390.26
531.115	9462.17
531.477	9527.87
531.839	9569.9
532.201	9630.97
532.564	9693.43
532.926	9779.69
533.287	9866.24
533.649	9904.55
534.011	9959.68
534.373	10007.46
534.735	10056.44
535.097	10136.54
535.458	10159.38
535.82	10222.31
536.181	10259.94
536.543	10273.43
536.904	10329.38
537.266	10423.63
537.627	10523.95
537.988	10572.51
538.35	10624.17
538.711	10680.09
539.072	10753.11
539.433	10732.29
539.794	10811.92
540.155	10841.15
540.516	10894.41
540.877	10992.29
541.238	11096.71
541.599	11227.69
541.959	11259.83
542.32	11335.86
542.681	11288.1
543.041	11326.86
543.402	11449.57
543.762	11465.78
544.123	11502.78
544.483	11508.67
544.844	11540.38
545.204	11577.64
545.564	11678.82
545.924	11728.75
546.284	11742.33
546.644	11798.06
547.004	11885.31
547.364	11979.01
547.724	12043.65
548.084	11985.26
548.444	12067.36
548.804	12104.62
549.164	12166.9
549.523	12184.43
549.883	12229.69
550.242	12213.72
550.602	12286.43
550.961	12357.95
551.321	12435.11
551.68	12535.67
552.04	12527.98
552.399	12596
552.758	12703.35
553.117	12630.64
553.476	12775.89
553.835	12791.16
554.194	12864.42
554.553	12884.46
554.912	12943.76
555.271	13015.43
555.63	13051.93
555.989	13122.92
556.347	13097.89
556.706	13135.85
557.065	13159.45
557.423	13233.81
557.782	13226.91
558.14	13187.21
558.499	13292.63
558.857	13432.68
559.215	13463.98
559.573	13539.34
559.932	13665.57
560.29	13715.22
560.648	13698.45
561.006	13731.52
561.364	13807.74
561.722	13874.52
562.08	13949.8
562.438	13863.64
562.795	13974.11
563.153	14036.35
563.511	14042.96
563.868	14127.48
564.226	14214.04
564.583	14247.55
564.941	14214.12
565.298	14357.11
565.656	14340.73
566.013	14533.39
566.37	14655.72
566.727	14808.82
567.085	14921.32
567.442	14990.46
567.799	15089.1
568.156	15249.32
568.513	15522.15
568.87	15771.71
569.226	15971.98
569.583	16085.71
569.94	16031.51
570.297	16203.05
570.653	16390.1
571.01	16642.15
571.366	16684.8
571.723	16562.56
572.079	16459.06
572.436	16701.22
572.792	16987
573.148	17378.86
573.505	17540.29
573.861	17550.77
574.217	17629.3
574.573	17631.77
574.929	17632.45
575.285	17659.04
575.641	17885.67
575.997	18036.97
576.352	18165.94
576.708	18496.43
577.064	18856.32
577.42	18995.09
577.775	18853.52
578.131	18536.43
578.486	18537.59
578.842	18702.8
579.197	19041.45
579.552	19243.27
579.908	19086.02
580.263	19302.7
580.618	19815.66
580.973	20733.65
581.328	21159.56
581.683	20596.91
582.038	19852.79
582.393	19155.61
582.748	18644.99
583.103	18524.25
583.458	18835.8
583.812	19211.01
584.167	19689.57
584.522	19771.16
584.876	19898.37
585.231	19698.56
585.585	19453.36
585.939	19233.15
586.294	19204.3
586.648	19566.69
587.002	19764.26
587.356	19986.86
587.711	20055.46
588.065	19855.27
588.419	19569.44
588.773	19296.08
589.127	19022.46
589.48	19193.11
589.834	19011.08
590.188	19014.37
590.542	19024.37
590.895	18961.39
591.249	19190.35
591.603	19211.51
591.956	19667.63
592.309	20080.92
592.663	20248.12
593.016	20199.18
593.369	19966.28
593.723	19895.56
594.076	20138.4
594.429	20400.98
594.782	20580
595.135	20434.06
595.488	20059.73
595.841	19951.35
596.194	19843.81
596.547	19839.6
596.899	19938.38
597.252	19957.11
597.605	20094.08
597.957	20139.17
598.31	20406.84
598.662	20587.35
599.015	20508.27
599.367	20455.98
599.719	20390.47
600.072	20668.19
600.424	20806.53
600.776	20776.21
601.128	20868.02
601.48	20753.92
601.832	20935.67
602.184	21111.75
602.536	21451.26
602.888	21682.34
603.24	21486.29
603.592	21368.22
603.943	21101.62
604.295	20904.93
604.646	20913.38
604.998	21240.13
605.349	21390.35
605.701	21237.32
606.052	21253.9
606.404	21228.81
606.755	21341.44
607.106	21379.67
607.457	21248.53
607.808	21317.5
608.159	21306
608.51	21346.38
608.861	21415.5
609.212	21474.92
609.563	21729.26
609.914	21867.56
610.265	21745.57
610.615	21927.68
610.966	21885.3
611.316	21898.32
611.667	22002.79
612.017	21913.09
612.368	21716.05
612.718	22110.86
613.068	22069.63
613.419	22160.79
613.769	22090.36
614.119	21990.43
614.469	22094.51
614.819	22059.86
615.169	22175.69
615.519	22149.61
615.869	22045.03
616.219	22047.37
616.568	22070.5
616.918	22074.99
617.268	22192.8
617.617	22178.72
617.967	22043.76
618.316	22048.6
618.666	22160.74
619.015	22371.15
619.364	22356.7
619.714	22651.3
620.063	22376.45
620.412	22303.53
620.761	22172.16
621.11	22285.1
621.459	22294.31
621.808	22513.21
622.157	22645.91
622.506	22705.47
622.855	22768.74
623.203	22870.21
623.552	22814.8
623.901	22825.37
624.249	22671.17
624.598	22767.96
624.946	22800.86
625.295	22785.72
625.643	22815.79
625.991	22895.88
626.34	22698.14
626.688	22795.77
627.036	23070.01
627.384	23040.83
627.732	22962.87
628.08	22906.14
628.428	22968.78
628.776	23081.41
629.124	23132.21
629.471	23121.99
629.819	23177.86
630.167	23085.82
630.514	23218.59
630.862	23156.32
631.209	23230.47
631.557	23182.57
631.904	23197.1
632.251	23188.41
632.599	23216.87
632.946	23340.62
633.293	23444.64
633.64	23396.33
633.987	23452.01
634.334	23536.99
634.681	23602.3
635.028	23565.11
635.375	23651.71
635.722	23789.31
636.068	23886.38
636.415	23900.98
636.762	23918.89
637.108	24004.09
637.455	23975.74
637.801	24021.06
638.147	24007.38
638.494	23997.6
638.84	24106.59
639.186	24183.09
639.532	24214.77
639.878	24334.79
640.225	24309.67
640.571	24062.63
640.916	24092.53
641.262	24059.7
641.608	24106.82
641.954	24268.97
642.3	24363.06
642.645	24310.32
642.991	24416.23
643.337	24421.95
643.682	24389.18
644.028	24604.53
644.373	24566.05
644.718	24675.85
645.064	24599.05
645.409	24723.95
645.754	24794.49
646.099	24811.47
646.444	24742.77
646.789	24738.43
647.134	24743.14
647.479	24728.22
647.824	24856.73
648.169	24968.7
648.513	25025.84
648.858	25000.31
649.203	25039.64
649.547	25120.64
649.892	25052.24
650.236	25202.87
650.581	25091.13
650.925	25123.7
651.269	25113.82
651.613	25093.42
651.958	25255.54
652.302	25395.78
652.646	25305.3
652.99	25308.02
653.334	25356.6
653.678	25216.73
654.022	25295.46
654.365	25397.55
654.709	26399.3
655.053	35337.35
655.396	47991.41
655.74	57111.97
656.083	57772.18
656.427	46083.56
656.77	34504.82
657.114	28946.18
657.457	26637.44
657.8	26063.93
658.143	25818.86
658.486	25577.17
658.83	25597.7
659.173	25359.24
659.516	25448.92
659.858	25523.79
660.201	25597.69
660.544	25604.63
660.887	25630.55
661.229	25582.31
661.572	25531.31
661.915	25588.43
662.257	25593.48
662.6	25719.08
662.942	25692.06
663.284	25682.7
663.627	25685.11
663.969	25638.87
664.311	25598.7
664.653	25650.95
664.995	25690.27
665.337	25674.79
665.679	25717.44
666.021	25720.3
666.363	25587.27
666.705	25690.38
667.046	25657.83
667.388	25459.54
667.73	25574.66
668.071	25449.79
668.413	25522.1
668.754	25647.65
669.096	25485.55
669.437	25634.37
669.778	25573.3
670.119	25649.81
670.461	25637.19
670.802	25762.87
671.143	25801.7
671.484	25793.81
671.825	25814.94
672.165	25714.7
672.506	25888.31
672.847	25809.51
673.188	25858.19
673.528	25836.68
673.869	25838.83
674.21	25952.56
674.55	25812.21
674.89	25675.1
675.231	25683.02
675.571	25620.56
675.911	25646.4
676.252	25734.64
676.592	25904.77
676.932	25728.64
677.272	25619.43
677.612	25891.38
677.952	25997.71
678.292	25838.52
678.631	25856.13
678.971	25820.34
679.311	25995.13
679.651	25944.06
679.99	25981.98
680.33	25863.46
680.669	25744.04
681.009	25686.28
681.348	25793.63
681.687	25935.68
682.026	25790.92
682.366	25758.43
682.705	25914.79
683.044	26002.05
683.383	25842.03
683.722	25968.17
684.061	25882.44
684.4	26139.55
684.738	26116.04
685.077	26224.48
685.416	26213.84
685.754	26215.35
686.093	26010.98
686.431	25895.98
686.77	25774.2
687.108	25949.5
687.447	25860.87
687.785	25980.58
688.123	25695.71
688.461	25840.36
688.799	25649.39
689.137	25592.07
689.475	25644.6
689.813	25662.91
690.151	25794.07
690.489	25792.25
690.827	25713.12
691.164	25823.08
691.502	25901.3
691.84	25930.35
692.177	25975.22
692.515	26061.16
692.852	25886.89
693.189	25962.86
693.527	26028.69
693.864	25817.2
694.201	25756.52
694.538	25751.14
694.875	25789.5
695.212	25597.94
695.549	25685.77
695.886	25574.97
696.223	25596.63
696.56	25692.71
696.897	25666.05
697.233	25856.81
697.57	25684.53
697.906	25741.18
698.243	25686.78
698.579	25868.06
698.916	26010.84
699.252	25781.78
699.588	25667
699.924	25621.9
700.261	25508.23
700.597	25506.75
700.933	25634.85
701.269	25462.31
701.605	25496.32
701.941	25555.66
702.276	25656.25
702.612	25456.66
702.948	25457.91
703.283	25593.04
703.619	25471.47
703.954	25564.96
704.29	25424.06
704.625	25414.26
704.961	25296.72
705.296	25290.76
705.631	25471.85
705.966	25468.06
706.301	25638.66
706.637	25816.1
706.972	26061.74
707.306	25901.98
707.641	25663.85
707.976	25471.85
708.311	25455.04
708.646	25388.26
708.98	25331.03
709.315	25167.84
709.649	25276.84
709.984	25411.05
710.318	25299.6
710.653	25384.52
710.987	25344.88
711.321	25406.34
711.655	25211.22
711.989	24971.25
712.324	25062.71
712.658	25268.9
712.992	25323.28
713.325	25188.83
713.659	25306.54
713.993	25152.02
714.327	25368.99
714.66	25312.58
714.994	25228.05
715.328	24983.32
715.661	24961.05
715.994	25008.32
716.328	24835.65
716.661	24939.36
716.994	25140.28
717.328	24928.78
717.661	25004.18
717.994	24887.45
718.327	24823.16
718.66	24741.74
718.993	24771.56
719.325	24825.64
719.658	24730.75
719.991	24561.82
720.324	24706.04
720.656	24635.54
720.989	24907.54
721.321	24681.09
721.654	24670.43
721.986	24551.55
722.318	24400.57
722.651	24370.32
722.983	24161.58
723.315	24353.9
723.647	24222.82
723.979	24354.68
724.311	24479.61
724.643	24247.74
724.975	24200.07
725.307	24405.45
725.638	24504.35
725.97	24450.75
726.302	24595.24
726.633	24348.59
726.965	24188.52
727.296	24140.28
727.628	24120.54
727.959	24112.47
728.29	24032.3
728.621	23943.5
728.952	24094.95
729.284	24066.62
729.615	24098.25
729.945	23981.78
730.276	23980.38
730.607	24013.98
730.938	23800.89
731.269	23732.44
731.599	23605.37
731.93	23915.56
732.261	23652.33
732.591	23510.16
732.922	23526.56
733.252	23273.27
733.582	23238.13
733.912	23366.89
734.243	23317.67
734.573	23279.04
734.903	23284.6
735.233	23124.43
735.563	23263.71
735.893	23083.46
736.223	22844.53
736.552	22979.58
736.882	23052.43
737.212	23051.51
737.541	22909.18
737.871	22607.97
738.2	22402.19
738.53	22294.19
738.859	22553.49
739.188	22554.55
739.518	22400.49
739.847	22291.99
740.176	22246.38
740.505	22335.87
740.834	22055.49
741.163	22033.93
741.492	22031.13
741.821	21977.69
742.15	21926.36
742.478	21989.7
742.807	21917.29
743.136	21710.13
743.464	21700.84
743.793	21691.09
744.121	21692.82
744.449	21496.4
744.778	21383.28
745.106	21371.9
745.434	21563.22
745.762	21341.21
746.09	21297.44
746.418	21270.83
746.746	21289.98
747.074	21174.27
747.402	21225.45
747.73	21178.82
748.057	20985.12
748.385	20826.58
748.712	20946.11
749.04	21015.47
749.367	20956.35
749.695	20878.53
750.022	20881.43
750.349	20773.87
750.677	20835.91
751.004	20780.89
751.331	20556.11
751.658	20679.58
751.985	20415.61
752.312	20328.32
752.639	20283.29
752.966	20392.4
753.292	20312.53
753.619	20382
753.946	20266.19
754.272	20177.7
754.599	20148.96
754.925	20106.4
755.251	19728.38
755.578	19910.15
755.904	19944.48
756.23	19988.88
756.556	20038.51
756.882	20014.81
757.208	19882.37
757.534	20092.19
757.86	19979.89
758.186	19805.94
758.512	19557.4
758.838	19535.34
759.163	19502.25
759.489	19544.16
759.814	19413.14
760.14	19534.7
760.465	19437.3
760.791	19224.28
761.116	19199.51
761.441	19119.22
761.766	19158.87
762.092	18922.44
762.417	18867.55
762.742	18862.9
763.066	18738.12
763.391	18656.41
763.716	18558.82
764.041	18683.47
764.366	18536.47
764.69	18610.64
765.015	18737.61
765.339	18737.78
765.664	18542.4
765.988	18323.99
766.312	18151.62
766.637	17852.82
766.961	17888.46
767.285	17991.02
767.609	18004.52
767.933	17838.07
768.257	17901.46
768.581	17963.83
768.905	18099.59
769.229	18044.09
769.552	17670.04
769.876	17570.28
770.2	17454.46
770.523	17410.79
770.847	17325.63
771.17	17329.22
771.493	17442.04
771.817	17232.8
772.14	17125.44
772.463	17129.62
772.786	17247.93
773.109	17035.71
773.432	17090.69
773.755	17115.19
774.078	17007.72
774.401	16945.53
774.724	16723.9
775.046	16773.47
775.369	16724.03
775.692	16728.85
776.014	16489.78
776.336	16257.57
776.659	16312.4
776.981	16306.64
777.303	16249.84
777.626	16197.26
777.948	16118.45
778.27	16062.65
778.592	16125.47
778.914	16156.3
779.236	16105.92
779.557	16168.23
779.879	16102.14
780.201	16104.59
780.523	16162.28
780.844	16149.05
781.166	16010.68
781.487	16024.16
781.809	15838.49
782.13	15967.24
782.451	15994.47
782.772	16131.66
783.094	15977.18
783.415	16022.25
783.736	16027.71
784.057	16080.46
784.378	16047.6
784.698	16071.56
785.019	16162.55
785.34	16155.35
785.661	16240.94
785.981	16332.61
786.302	16352.36
786.622	16249.77
786.943	16454.71
787.263	16264.69
787.583	16310.54
787.903	16302.09
788.224	16300.97
788.544	16452.62
788.864	16394.65
789.184	16439.62
789.504	16310.34
789.824	16272.75
790.143	16212.41
790.463	16212.85
790.783	16105.62
791.102	16119.7
791.422	16181
791.741	16088.3
792.061	16118.55
792.38	16107.93
792.699	15965.35
793.019	16087.26
793.338	16129.27
793.657	16108.07
793.976	16141.63
794.295	16005.4
794.614	16010.03
794.933	15942.22
795.252	15947.3
795.57	15802.4
795.889	15643.47
796.208	15635.13
796.526	15593.99
796.845	15540.82
797.163	15398.71
797.482	15512.4
797.8	15523.56
798.118	15561.24
798.436	15528.47
798.754	15492.66
799.073	15321.97
799.391	15205.98
799.708	14971.83
800.026	15111.16
800.344	15253.32
800.662	15392.81
800.98	15330.2
801.297	15284.05
801.615	15115.79
801.932	15075.06
802.25	14972.33
802.567	14846.6
802.884	14820.76
803.202	14850.91
803.519	14777.45
803.836	14779.96
804.153	14654.44
804.47	14630.66
804.787	14621.33
805.104	14519.71
805.421	14494.63
805.737	14495.28
806.054	14477.89
806.371	14435.37
806.687	14317.96
807.004	14231.93
807.32	14145.15
807.637	13984.8
807.953	14110.48
808.269	14186.12
808.585	14101.57
808.902	13869.1
809.218	13752.55
809.534	13788.79
809.85	13899.69
810.165	13844.21
810.481	13791.96
810.797	13787.09
811.113	13726.29
811.428	13568.67
811.744	13550.02
812.059	13529.55
812.375	13428.76
812.69	13248.52
813.006	13239.42
813.321	13324.65
813.636	13234.72
813.951	13274.43
814.266	13293.37
814.581	13172.3
814.896	13014.15
815.211	12947.95
815.526	12938.07
815.841	12911.45
816.155	12992.56
816.47	12921.76
816.784	12839.6
817.099	12829.4
817.413	12806.03
817.728	12707.96
818.042	12621.32
818.356	12645.93
818.67	12546.62
818.985	12612.52
819.299	12459.1
819.613	12480.31
819.926	12325.63
820.24	12332.97
820.554	12323.28
820.868	12397.94
821.182	12323.52
821.495	12301.74
821.809	12052.61
822.122	11949.49
822.436	11921.65
822.749	11929.47
823.062	11909.66
823.376	11867.83
823.689	11737.66
824.002	11713.83
824.315	11687.57
824.628	11777.43
824.941	11692.49
825.254	11667.39
825.566	11568.33
825.879	11526.06
826.192	11463.21
826.504	11380.36
826.817	11420.4
827.129	11570.22
827.442	11459.08
827.754	11308.87
828.066	11360.58
828.379	11287.2
828.691	11268.28
829.003	11221.82
829.315	11313.8
829.627	11095.45
829.939	11032.99
830.251	11009.43
830.562	10867.18
830.874	10845.31
831.186	10766.85
831.497	10861.43
831.809	10848.66
832.12	10850.31
832.432	10731.23
832.743	10739.29
833.054	10599.64
833.365	10508.6
833.676	10429.47
833.988	10509.84
834.299	10580.3
834.61	10581.49
834.92	10539.79
835.231	10455.78
835.542	10317.26
835.853	10286.69
836.163	10317.23
836.474	10279.4
836.784	10260.46
837.095	10242.04
837.405	10209.3
837.715	10142.58
838.026	10077.12
838.336	10017.24
838.646	10018.49
838.956	10008.86
839.266	9915.16
839.576	9912.01
839.886	9850.02
840.195	9787.14
840.505	9768.79
840.815	9810.99
841.124	9760.15
841.434	9693.41
841.743	9535.14
842.053	9469.93
842.362	9416.65
842.671	9401.27
842.981	9449.59
843.29	9383.45
843.599	9370.65
843.908	9333.52
844.217	9262.22
844.526	9204.55
844.835	9141.4
845.143	9163.21
845.452	9211.17
845.761	9245.95
846.069	9140.4
846.378	9092.46
846.686	9061.19
846.995	8979.9
847.303	8968.61
847.611	8982.42
847.919	8942.64
848.227	8901.17
848.535	8758.13
848.843	8670.08
849.151	8580.7
849.459	8642.75
849.767	8559.83
850.075	8508.42
850.382	8492.5
850.69	8465.01
850.998	8406.14
851.305	8336.74
851.612	8375.05
851.92	8359.11
852.227	8381.51
852.534	8348.49
852.841	8382.56
853.148	8333.34
853.455	8279.07
853.762	8211.11
854.069	8173.27
854.376	8110.53
854.683	8142
854.99	8077.66
855.296	7995.59
855.603	7854.48
855.909	7782.46
856.216	7735.4
856.522	7711.01
856.828	7608.21
857.135	7601.83
857.441	7638.48
857.747	7602.37
858.053	7546.25
858.359	7438.09
858.665	7483.27
858.971	7474.16
859.276	7494.4
859.582	7437.14
859.888	7415.24
860.193	7309.39
860.499	7255.47
860.804	7245.18
861.11	7172.31
861.415	7127.5
861.72	7146.19
862.026	7122.13
862.331	7100.86
862.636	7020.39
862.941	7002.62
863.246	6971.9
863.551	6948.31
863.855	6928.51
864.16	6962.9
864.465	6928.56
864.769	6818.53
865.074	6746.22
865.378	6690.64
865.683	6654.27
865.987	6656.73
866.291	6647.44
866.596	6644.12
866.9	6587.08
867.204	6545.29
867.508	6495.35
867.812	6441
868.116	6420.61
868.42	6360.73
868.723	6353.4
869.027	6421.5
869.331	6337.61
869.634	6258.38
869.938	6165.11
870.241	6150.54
870.544	6097.38
870.848	6065.81
871.151	6078.67
871.454	6062.84
871.757	6044.74
872.06	5989.28
872.363	5947.26
872.666	5978.74
872.969	5958.02
873.272	5976.21
873.574	5963.87
873.877	5897.93
874.18	5891.8
874.482	5861.59
874.785	5819.24
875.087	5732.66
875.389	5675.11
875.692	5653.61
875.994	5649.3
876.296	5653.86
876.598	5610.46
876.9	5535.09
877.202	5428.95
877.504	5401.38
877.805	5379.23
878.107	5380.58
878.409	5349.45
878.71	5378.39
879.012	5329.08
879.313	5307.02
879.615	5319.72
879.916	5285.47
880.217	5248.69
880.518	5198.6
880.82	5153.63
881.121	5129.41
881.422	5160.09
881.723	5148.56
882.023	5103.59
882.324	5090.65
882.625	5026.01
882.926	4952.15
883.226	4927.6
883.527	4897.67
883.827	4936.63
884.128	4933.54
884.428	4912.81
884.728	4795.91
885.028	4734.28
885.328	4697.54
885.629	4671.54
885.929	4678.23
886.228	4701.94
886.528	4688.87
886.828	4639.58
887.128	4561.36
887.427	4475.03
887.727	4422.46
888.027	4388.92
888.326	4399.76
888.625	4417.06
888.925	4389.36
889.224	4422.07
889.523	4410.25
889.822	4407.06
890.121	4388.46
890.42	4328.32
890.719	4320.17
891.018	4307.84
891.317	4313.16
891.616	4321.44
891.914	4304.33
892.213	4277.48
892.512	4253.01
892.81	4276.9
893.108	4277.89
893.407	4233.58
893.705	4225.06
894.003	4222.74
894.301	4208.63
894.599	4230.7
894.897	4231.74
895.195	4180.51
895.493	4120.78
895.791	4099.87
896.089	4106.28
896.386	4133.4
896.684	4176.17
896.981	4148.87
897.279	4135.7
897.576	4152.81
897.874	4122.8
898.171	4107.28
898.468	4090.64
898.765	4087.98
899.062	4167.23
899.359	4175.2
899.656	4177.57
899.953	4153.77
900.25	4138.22
900.547	4099.33
900.843	4082.43
901.14	4067.71
901.436	4066.12
901.733	4074.75
902.029	4063
902.325	4060.56
902.622	4003.32
902.918	4004.93
903.214	3990.74
903.51	3939.97
903.806	3931.8
904.102	3931.7
904.398	3959.56
904.694	3981.25
904.989	4004.5
905.285	3976.2
905.581	3951.86
905.876	3960.27
906.171	3946.16
906.467	3926.08
906.762	3905.76
907.057	3892.34
907.353	3882.68
907.648	3847.15
907.943	3852.45
908.238	3847.83
908.533	3801.8
908.827	3766.81
909.122	3729.82
909.417	3749.71
909.711	3788.46
910.006	3770.76
910.301	3744.56
910.595	3753.96
910.889	3748.44
911.184	3689.81
911.478	3681.69
911.772	3674.97
912.066	3642.93
912.36	3621.99
912.654	3612.88
912.948	3613.79
913.242	3627.15
913.536	3573.77
913.829	3547
914.123	3529.91
914.416	3485.58
914.71	3480.21
915.003	3499.98
915.297	3509.94
915.59	3514.5
915.883	3509.19
916.176	3495.11
916.469	3460.98
916.762	3430.63
917.055	3408.55
917.348	3385.12
917.641	3364.43
917.934	3339.19
918.226	3331.4
918.519	3332.88
918.811	3332.94
919.104	3306.96
919.396	3266.77
919.689	3227.58
919.981	3176.37
920.273	3136.01
920.565	3125.01
920.857	3103.29
921.149	3114.37
921.441	3121.61
921.733	3098.31
922.025	3085.59
922.316	3067.41
922.608	3049.16
922.9	3026.33
923.191	3002.74
923.483	3015.43
923.774	2974.72
924.065	2959.7
924.357	2924.29
924.648	2893.5
924.939	2866.96
925.23	2834.14
925.521	2806.92
925.812	2803.28
926.102	2776.55
926.393	2771.69
926.684	2771.34
926.975	2766.02
927.265	2754.88
927.556	2750.31
927.846	2717.03
928.136	2689.65
928.427	2660.21
928.717	2637.87
929.007	2617.42
929.297	2596.57
929.587	2593.94
929.877	2593.22
930.167	2593.04
930.457	2576.96
930.746	2557.33
931.036	2536.86
931.325	2496.31
931.615	2461.74
931.904	2441.44
932.194	2419.4
932.483	2415.99
932.772	2422.45
933.062	2406.57
933.351	2380.78
933.64	2345.88
933.929	2328.8
934.218	2299.1
934.506	2271.39
934.795	2264.3
935.084	2263.85
935.372	2255.52
935.661	2253.27
935.949	2243.43
936.238	2233.78
936.526	2201.06
936.815	2171.81
937.103	2152.92
937.391	2137.27
937.679	2120.03
937.967	2116.37
938.255	2107.56
938.543	2113.25
938.831	2105.03
939.118	2100.55
939.406	2076.98
939.693	2038.38
939.981	2003.16
940.268	1984.08
940.556	1956.13
940.843	1949.63
941.13	1952.89
941.418	1950.59
941.705	1948.93
941.992	1937.67
942.279	1924.81
942.566	1900.72
942.852	1873.8
943.139	1852.61
943.426	1833.61
943.712	1822.76
943.999	1817.35
944.285	1817.79
944.572	1799.97
944.858	1781.68
945.144	1778.53
945.431	1766.22
945.717	1754.92
946.003	1742.27
946.289	1717.54
946.575	1700.27
946.861	1686.31
947.146	1673.56
947.432	1673.84
947.718	1665.32
948.003	1654.55
948.289	1635.78
948.574	1606.07
948.86	1584.67
949.145	1570.11
949.43	1551.35
949.715	1543.48
950	1541.11
950.285	1542.71
950.57	1549.37
950.855	1545.87
951.14	1538.83
951.425	1524.69
951.709	1503.68
951.994	1481.1
952.278	1472.92
952.563	1467.83
952.847	1458.38
953.132	1453.36
953.416	1453.97
953.7	1435.34
953.984	1424.31
954.268	1401.87
954.552	1383.9
954.836	1368.27
955.12	1352.67
955.404	1342.31
955.687	1339.01
955.971	1332.33
956.254	1332.41
956.538	1324.69
956.821	1326.51
957.105	1318.91
957.388	1309.32
957.671	1295.61
957.954	1284.79
958.237	1270.66
958.52	1251.04
958.803	1239.13
959.086	1232.21
959.369	1227.92
959.652	1222.7
959.934	1214.47
960.217	1211.35
960.499	1206.19
960.782	1195.96
961.064	1178.39
961.346	1166.31
961.629	1153
961.911	1143.66
962.193	1137.26
962.475	1134.65
962.757	1135.15
963.039	1132.46
963.32	1132.67
963.602	1120.65
963.884	1109.82
964.165	1092.25
964.447	1079.95
964.728	1069.9
965.01	1058.21
965.291	1047.62
965.572	1041.99
965.853	1038.94
966.134	1031.71
966.415	1027.17
966.696	1017.84
966.977	1006.74
967.258	996.87
967.539	983.67
967.819	982.47
968.1	975.33
968.38	966.42
968.661	961.17
968.941	949.73
969.222	945.91
969.502	945.21
969.782	942.08
970.062	937.96
970.342	929.85
970.622	922.83
970.902	914.84
971.182	906.92
971.462	901.74
971.741	897.73
972.021	892.34
972.3	888.78
972.58	885.92
972.859	876.04
973.138	871.64
973.418	863.06
973.697	849.55
973.976	836.85
974.255	826.24
974.534	818.43
974.813	814.25
975.092	811.52
975.37	810.4
975.649	810.43
975.928	809.38
976.206	805.44
976.485	797.24
976.763	785.28
977.041	776.43
977.32	769.2
977.598	759.34
977.876	751.58
978.154	750.15
978.432	748.07
978.71	743.95
978.988	744.12
979.265	742.61
979.543	739.98
979.821	734.2
980.098	731.73
980.376	726.61
980.653	721.65
980.93	710.07
981.208	703.02
981.485	700.04
981.762	694
982.039	689.35
982.316	683.92
982.593	679.93
982.87	679.03
983.146	679.59
983.423	673.47
983.7	671.05
983.976	663.04
984.253	655.8
984.529	654.49
984.805	651.75
985.082	646.08
985.358	645.72
985.634	642.26
985.91	640.34
986.186	638.42
986.462	637.8
986.738	628.7
987.013	624.22
987.289	619.56
987.565	610.58
987.84	604.18
988.116	602.4
988.391	600.7
988.666	597.77
988.942	595.91
989.217	593.68
989.492	591.41
989.767	587.88
990.042	578.89
990.317	574.99
990.592	573.95
990.866	567.64
991.141	561.14
991.416	556.77
991.69	552.55
991.964	551.26
992.239	546.93
992.513	543.47
992.787	541.93
993.062	537.33
993.336	532.78
993.61	532.26
993.884	530.13
994.158	527.26
994.431	526.54
994.705	523.92
994.979	518.54
995.252	515.62
995.526	513.96
995.799	506.6
996.073	506.86
996.346	507.23
996.619	506.44
996.892	504.41
997.165	501.31
997.438	499.37
997.711	497.7
997.984	493.99
998.257	489.91
998.53	486.56
998.802	483.71
999.075	480.7
999.347	480.19
999.62	476.03
999.892	476.1
1000.165	472.5
1000.437	471.54
1000.709	470.87
1000.981	466.66
1001.253	460.33
1001.525	458.17
1001.797	457.46
1002.068	453.94
1002.34	451.64
1002.612	453.15
1002.883	448.68
1003.155	448.21
1003.426	445.89
1003.698	443.69
1003.969	442.08
1004.24	440.76
1004.511	438.38
1004.782	437.25
1005.053	435.29
1005.324	433.79
1005.595	431.22
1005.866	427.55
1006.136	429
1006.407	427.38
1006.678	425.04
1006.948	425.14
1007.218	424.65
1007.489	421.78
1007.759	420.25
1008.029	418.28
1008.299	415.6
1008.569	417.26
1008.839	412.71
1009.109	412.52
1009.379	409.6
1009.649	408.27
1009.918	408.41
1010.188	407.29
1010.458	406.21
1010.727	405.02
1010.996	404.02
1011.266	403.63
1011.535	403
1011.804	401.26
1012.073	398.96
1012.342	397.12
1012.611	397.32
1012.88	398.46
1013.149	395.51
1013.417	394.43
1013.686	392.86
1013.955	393.45
1014.223	392.7
1014.492	390.46
1014.76	390.18
1015.028	387.94
1015.296	388.6
1015.565	389.04
1015.833	384.53
1016.101	384.92
1016.368	383.88
1016.636	382.39
1016.904	383.86
1017.172	382.04
1017.439	380.57
1017.707	380.54
1017.974	380.79
1018.242	379.11
1018.509	379.79
1018.776	377.09
1019.044	375.69
1019.311	377.98
1019.578	374.35
1019.845	375.21
1020.112	376.36
1020.378	376.36
1020.645	376.36
