Data from 190515_Kr_film_FLMS138901_11-36-32-931.txt Node
Date: Wed May 15 11:36:32 EDT 2019
User: pSAM
Spectrometer: FLMS13890
Trigger mode: 0
Integration Time (sec): 5.000000E-3
Scans to average: 1000
Electric dark correction enabled: true
Nonlinearity correction enabled: false
Boxcar width: 0
XAxis mode: Wavelengths
Number of Pixels in Spectrum: 2048
>>>>>Begin Spectral Data<<<<<
342.097	-45.55
342.483	-45.55
342.868	-45.55
343.254	-91.1
343.639	-93.63
344.025	-95.5
344.41	-94.45
344.796	-86.67
345.181	-77.92
345.567	-65.14
345.952	-52.46
346.337	-36.32
346.722	-18.33
347.107	-2.2
347.493	16.78
347.878	36.33
348.263	58.47
348.648	75.4
349.033	95.67
349.418	114.35
349.802	131.98
350.187	152
350.572	166.48
350.957	251.43
351.342	437.33
351.726	465.39
352.111	484.07
352.495	497.71
352.88	511.91
353.264	525.9
353.649	540.62
354.033	552.9
354.418	564.53
354.802	576.29
355.186	586.22
355.57	591.76
355.955	600.28
356.339	609.09
356.723	614.35
357.107	619.72
357.491	623.17
357.875	627.64
358.259	626.61
358.643	635.01
359.026	636.88
359.41	638.37
359.794	642.64
360.178	643.63
360.561	643.15
360.945	644.55
361.329	643.19
361.712	645.56
362.096	645.88
362.479	646.2
362.862	650.73
363.246	646.56
363.629	644.55
364.012	647.19
364.396	648.46
364.779	649.56
365.162	648.87
365.545	652.13
365.928	651.43
366.311	654.1
366.694	658.04
367.077	662
367.46	659.71
367.843	662.59
368.226	662.28
368.608	661.98
368.991	664.31
369.374	664.11
369.756	667.77
370.139	669.03
370.521	668.59
370.904	668.77
371.286	672.63
371.669	674.64
372.051	674.77
372.433	677.54
372.816	679.46
373.198	682.16
373.58	687.51
373.962	688.2
374.344	692.12
374.726	696.19
375.108	699.14
375.49	699.26
375.872	702.68
376.254	700.32
376.636	703.37
377.018	705.32
377.399	707.49
377.781	710.32
378.163	709.94
378.544	707.04
378.926	715.33
379.307	722.05
379.689	728.24
380.07	732.39
380.452	736.97
380.833	743.73
381.214	743.61
381.596	745.75
381.977	760.48
382.358	768.86
382.739	779.21
383.12	779.54
383.501	779.25
383.882	774.58
384.263	777.6
384.644	779.31
385.025	786.24
385.406	789.72
385.787	793.77
386.167	795.75
386.548	807.18
386.929	818.5
387.309	823.71
387.69	834.48
388.07	842.56
388.451	842.25
388.831	844.88
389.211	835.99
389.592	829.18
389.972	832.02
390.352	839.99
390.733	845.91
391.113	847.27
391.493	854.88
391.873	873.07
392.253	882.41
392.633	896.94
393.013	902.87
393.393	900.33
393.772	894.72
394.152	902.49
394.532	906.07
394.912	909.59
395.291	903.23
395.671	909.49
396.05	905.91
396.43	909.21
396.809	912.67
397.189	929.39
397.568	941.79
397.948	949.5
398.327	956.38
398.706	961.43
399.085	958.23
399.465	955.89
399.844	948.68
400.223	941.88
400.602	949.78
400.981	950.38
401.36	948.74
401.739	949.56
402.117	962.46
402.496	955.27
402.875	960.41
403.254	973.06
403.632	975.19
404.011	987.77
404.39	1002.58
404.768	1011.9
405.147	1031.14
405.525	1032.75
405.903	1029.05
406.282	1027.84
406.66	1020.48
407.038	1009.86
407.417	1009.13
407.795	1018.93
408.173	1025.08
408.551	1031
408.929	1033.48
409.307	1039.31
409.685	1051.21
410.063	1056.42
410.441	1051.39
410.818	1058.21
411.196	1066.33
411.574	1083.94
411.952	1094.35
412.329	1114.09
412.707	1134.38
413.084	1134.75
413.462	1129.35
413.839	1131.79
414.217	1119.61
414.594	1128.31
414.971	1133.93
415.349	1141.66
415.726	1141.09
416.103	1135.05
416.48	1141.13
416.857	1148.62
417.234	1161.18
417.611	1162.2
417.988	1164.66
418.365	1156.45
418.742	1166.38
419.119	1180.11
419.495	1185.2
419.872	1193.2
420.249	1229.56
420.625	1245.73
421.002	1261.2
421.379	1270.38
421.755	1284.88
422.131	1301.14
422.508	1309.94
422.884	1315.55
423.26	1315.83
423.637	1317.09
424.013	1279.87
424.389	1281.41
424.765	1280.31
425.141	1289.46
425.517	1280.74
425.893	1277.55
426.269	1286.43
426.645	1324.06
427.021	1356.01
427.397	1362.92
427.772	1351.48
428.148	1342.09
428.524	1361.04
428.899	1362.94
429.275	1392.93
429.651	1416.53
430.026	1430.96
430.401	1428.64
430.777	1422.44
431.152	1406.88
431.527	1402.62
431.903	1408.15
432.278	1407.03
432.653	1422.31
433.028	1458.51
433.403	1490.34
433.778	1521.9
434.153	1492.31
434.528	1482.8
434.903	1486.49
435.278	1502.86
435.653	1519.2
436.027	1522.91
436.402	1531.31
436.777	1541.11
437.151	1552.42
437.526	1571.97
437.9	1582.32
438.275	1607.75
438.649	1594.89
439.023	1603.1
439.398	1601.06
439.772	1600.96
440.146	1618.78
440.52	1675.79
440.895	1712.66
441.269	1744.78
441.643	1740.81
442.017	1727.22
442.391	1727.82
442.765	1743.02
443.138	1732.5
443.512	1765.21
443.886	1769.85
444.26	1776.4
444.633	1778.89
445.007	1779.93
445.38	1786.09
445.754	1784.93
446.127	1805.54
446.501	1796.38
446.874	1789.68
447.248	1788.21
447.621	1812.56
447.994	1809.13
448.367	1819.34
448.741	1833.29
449.114	1819.54
449.487	1834.68
449.86	1841.03
450.233	1841.12
450.606	1833.58
450.978	1834.45
451.351	1862.45
451.724	1846.14
452.097	1840.24
452.469	1856.72
452.842	1861.26
453.215	1866.86
453.587	1867.42
453.96	1885.39
454.332	1896.18
454.704	1912.64
455.077	1919.47
455.449	1929.97
455.821	1929.65
456.194	1969.85
456.566	1977.79
456.938	2006.27
457.31	2037.6
457.682	2073.6
458.054	2070.09
458.426	2087.64
458.798	2096.49
459.17	2107.52
459.541	2095.65
459.913	2069.66
460.285	2078.13
460.656	2095.84
461.028	2091.54
461.399	2116.79
461.771	2120.51
462.142	2151.04
462.514	2204.52
462.885	2217.98
463.256	2285.48
463.628	2296.99
463.999	2328.06
464.37	2366
464.741	2371.82
465.112	2351.29
465.483	2356.67
465.854	2371.87
466.225	2349.51
466.596	2348.89
466.967	2396.28
467.338	2413.07
467.708	2461.31
468.079	2463.13
468.45	2465.17
468.82	2462.56
469.191	2472.96
469.561	2482.81
469.932	2518.61
470.302	2517.05
470.673	2570.88
471.043	2595.87
471.413	2623.77
471.783	2673.56
472.154	2739.6
472.524	2769.94
472.894	2828.18
473.264	2840.49
473.634	2838.38
474.004	2868.16
474.374	2939.73
474.743	2960.44
475.113	3029.17
475.483	3048.55
475.853	3098.4
476.222	3122.56
476.592	3187.53
476.961	3187.8
477.331	3239.41
477.7	3283.34
478.07	3358.86
478.439	3366.62
478.808	3427.63
479.178	3469.85
479.547	3541.15
479.916	3565.78
480.285	3623.8
480.654	3645.19
481.023	3715.88
481.392	3763.78
481.761	3811.9
482.13	3869.53
482.499	3934.37
482.867	3969.77
483.236	4069.9
483.605	4162.77
483.973	4208.58
484.342	4305.12
484.71	4569.45
485.079	5230.51
485.447	5658.36
485.816	5875.6
486.184	5394.02
486.552	4961.85
486.921	4750.46
487.289	4675.46
487.657	4697.23
488.025	4711.72
488.393	4737.44
488.761	4807.5
489.129	4902.24
489.497	4929.81
489.865	5037.29
490.233	5082.81
490.6	5107.44
490.968	5110.8
491.336	5140.59
491.703	5201.5
492.071	5292.95
492.438	5342.51
492.806	5379.8
493.173	5454.31
493.541	5479.94
493.908	5470.08
494.275	5501.25
494.642	5535.9
495.01	5579.4
495.377	5640.15
495.744	5690.77
496.111	5775.09
496.478	5817.54
496.845	5794.17
497.211	5814.65
497.578	5910.24
497.945	5992.56
498.312	6073.78
498.678	6122.96
499.045	6174.82
499.412	6146.26
499.778	6169.03
500.145	6212.2
500.511	6275.87
500.878	6333.85
501.244	6407.62
501.61	6417.45
501.976	6418.02
502.343	6468.84
502.709	6548.33
503.075	6575.54
503.441	6586.82
503.807	6577.82
504.173	6595.49
504.539	6671.84
504.905	6738.19
505.27	6796.87
505.636	6820.66
506.002	6884.24
506.367	6871.93
506.733	6869.92
507.099	6873.61
507.464	6951.25
507.829	6987.95
508.195	7054.95
508.56	7079.44
508.926	7099.16
509.291	7119.5
509.656	7158.65
510.021	7203.53
510.386	7243.53
510.751	7258.86
511.116	7322.58
511.481	7349.65
511.846	7407.16
512.211	7441.38
512.576	7479.65
512.941	7507.41
513.305	7540.74
513.67	7579.29
514.035	7598.23
514.399	7641.32
514.764	7640.79
515.128	7667.06
515.493	7714.69
515.857	7763.48
516.221	7764.83
516.585	7816.59
516.95	7867.92
517.314	7872.7
517.678	7890.03
518.042	7935.31
518.406	8064.6
518.77	8064.27
519.134	8090.81
519.498	8121.13
519.862	8139.05
520.225	8122.35
520.589	8202.16
520.953	8271.98
521.316	8326.24
521.68	8286.45
522.043	8356.51
522.407	8389.91
522.77	8434.35
523.134	8510.2
523.497	8505.82
523.86	8614.39
524.223	8656.95
524.587	8688.85
524.95	8720.7
525.313	8790.31
525.676	8830.84
526.039	8865.11
526.402	8888.11
526.765	8967.38
527.127	9030.84
527.49	9084.84
527.853	9154.82
528.215	9161.84
528.578	9274.73
528.941	9276.81
529.303	9358.12
529.666	9394.26
530.028	9448.25
530.39	9487.47
530.753	9519
531.115	9619.24
531.477	9674.9
531.839	9721.53
532.201	9732.52
532.564	9863.23
532.926	9926.44
533.287	10031.98
533.649	10065.43
534.011	10107.34
534.373	10194.43
534.735	10288.53
535.097	10311.08
535.458	10366.31
535.82	10404.58
536.181	10445.72
536.543	10438.61
536.904	10439.88
537.266	10668.43
537.627	10804.01
537.988	10845.11
538.35	10872.44
538.711	10927.58
539.072	11016.06
539.433	10968.67
539.794	11070.17
540.155	11092.29
540.516	11154.4
540.877	11198.36
541.238	11348.32
541.599	11487.72
541.959	11488.31
542.32	11574.41
542.681	11635.97
543.041	11657.25
543.402	11742.58
543.762	11808.57
544.123	11844.91
544.483	11867.27
544.844	11860.38
545.204	11899.65
545.564	11892.23
545.924	11992.25
546.284	12026.9
546.644	12089.36
547.004	12233.83
547.364	12346.75
547.724	12423.33
548.084	12458.9
548.444	12523.74
548.804	12517.39
549.164	12550.89
549.523	12637.34
549.883	12694.51
550.242	12709.06
550.602	12727.65
550.961	12770.13
551.321	12805.05
551.68	12918.92
552.04	12887.7
552.399	12938.14
552.758	12986.84
553.117	13009.94
553.476	13199.72
553.835	13226.7
554.194	13250.69
554.553	13236.28
554.912	13261.06
555.271	13370.79
555.63	13417.26
555.989	13553.73
556.347	13564.67
556.706	13592.06
557.065	13649.4
557.423	13664.07
557.782	13669.38
558.14	13716.08
558.499	13739.5
558.857	13880.05
559.215	13913.85
559.573	14046.19
559.932	14097.66
560.29	14171.32
560.648	14142.12
561.006	14185.34
561.364	14229.72
561.722	14306.98
562.08	14359.21
562.438	14333.18
562.795	14473.09
563.153	14493.4
563.511	14591.65
563.868	14664.15
564.226	14760.06
564.583	14890.55
564.941	14775.14
565.298	14939.87
565.656	14852.74
566.013	15005.36
566.37	15183.69
566.727	15344.23
567.085	15384.48
567.442	15451.73
567.799	15612.21
568.156	15712.97
568.513	15935.94
568.87	16282.25
569.226	16520.55
569.583	16679.14
569.94	16609.36
570.297	16751.84
570.653	16775.23
571.01	17121.44
571.366	17263.65
571.723	17223.37
572.079	17113.15
572.436	17241.76
572.792	17649.11
573.148	18059.76
573.505	18243.81
573.861	18219.98
574.217	18280.83
574.573	18273.26
574.929	18230.27
575.285	18282.48
575.641	18539.76
575.997	18654.06
576.352	18755.82
576.708	18987.54
577.064	19515.37
577.42	19769.4
577.775	19741.32
578.131	19349.33
578.486	19069.29
578.842	19249.4
579.197	19566.39
579.552	19939.19
579.908	19861.86
580.263	19856.75
580.618	20459.83
580.973	21189.1
581.328	21966.8
581.683	21691.14
582.038	20871.1
582.393	20032.82
582.748	19469.72
583.103	19363.05
583.458	19658.67
583.812	19956.79
584.167	20520.35
584.522	20627.74
584.876	20733.25
585.231	20758.78
585.585	20472.88
585.939	20131.21
586.294	20056.23
586.648	20350.79
587.002	20735.73
587.356	20928.21
587.711	21280.23
588.065	20960.14
588.419	20574.36
588.773	20249.83
589.127	19888.14
589.48	19993.45
589.834	19898.12
590.188	19926.7
590.542	20004.98
590.895	20036.9
591.249	20131.28
591.603	20019.88
591.956	20430.16
592.309	20796.12
592.663	21123.39
593.016	21169.37
593.369	21060.55
593.723	20835.57
594.076	21147.37
594.429	21472.23
594.782	21631.94
595.135	21492.98
595.488	21153.26
595.841	21033.1
596.194	20793.42
596.547	20770.46
596.899	20931.44
597.252	20960.95
597.605	20993.78
597.957	21085.3
598.31	21350.95
598.662	21522.32
599.015	21342.74
599.367	21299.99
599.719	21422.23
600.072	21593.1
600.424	21768.35
600.776	21837.9
601.128	21970.2
601.48	21790.03
601.832	21921.3
602.184	22125.66
602.536	22521.35
602.888	22797.6
603.24	22673.95
603.592	22496.08
603.943	22069.63
604.295	22043.11
604.646	22150.12
604.998	22228.19
605.349	22247.75
605.701	22103.47
606.052	22308.63
606.404	22288.18
606.755	22372.77
607.106	22448.47
607.457	22403.35
607.808	22511.33
608.159	22451.43
608.51	22281.97
608.861	22328.12
609.212	22472.36
609.563	22654.98
609.914	22868.28
610.265	22797.73
610.615	22874.89
610.966	23133.02
611.316	23189.23
611.667	23258.32
612.017	23245.79
612.368	22946.95
612.718	23342.01
613.068	23317.5
613.419	23336.27
613.769	23441.67
614.119	23356.17
614.469	23392.58
614.819	23271.18
615.169	23273.52
615.519	23430.48
615.869	23421.49
616.219	23339.62
616.568	23355.89
616.918	23359.65
617.268	23546.16
617.617	23368.81
617.967	23303.41
618.316	23226.28
618.666	23211.27
619.015	23462.4
619.364	23647.63
619.714	23865.52
620.063	23767.61
620.412	23565.68
620.761	23387.22
621.11	23559.66
621.459	23701.89
621.808	23935.72
622.157	24022.49
622.506	24079.78
622.855	24230.58
623.203	24319.05
623.552	24253.35
623.901	24363.14
624.249	24182.48
624.598	24113.94
624.946	23978.68
625.295	23920.15
625.643	23984.94
625.991	24038.31
626.34	24084.52
626.688	24347.36
627.036	24672.9
627.384	24678.42
627.732	24668.16
628.08	24703.45
628.428	24532.88
628.776	24788.99
629.124	24721.64
629.471	24558.3
629.819	24594.82
630.167	24623.24
630.514	24563.11
630.862	24436.88
631.209	24549.75
631.557	24696.71
631.904	24783.29
632.251	24873.27
632.599	24741.73
632.946	24883.39
633.293	25002.75
633.64	25026.52
633.987	25097.92
634.334	25060.96
634.681	25116.46
635.028	25204.24
635.375	25160.54
635.722	25182.43
636.068	25241.33
636.415	25328.87
636.762	25324.17
637.108	25402.02
637.455	25391.53
637.801	25584.49
638.147	25680.69
638.494	25615.33
638.84	25648.38
639.186	25444.21
639.532	25384.31
639.878	25567.73
640.225	25636.75
640.571	25731.66
640.916	25710.16
641.262	25925.96
641.608	25900.77
641.954	25931.17
642.3	25966.01
642.645	26036.23
642.991	26184.43
643.337	26270.71
643.682	26190.87
644.028	26138.85
644.373	26171.05
644.718	26146.81
645.064	26170.09
645.409	26201.82
645.754	26279.62
646.099	26450.34
646.444	26464.91
646.789	26647.79
647.134	26643.32
647.479	26709.07
647.824	26930.75
648.169	27037.44
648.513	27109.26
648.858	26980.61
649.203	26921.36
649.547	26931.09
649.892	26861.37
650.236	26874.99
650.581	26886.59
650.925	27021.71
651.269	27123.95
651.613	27250.44
651.958	27160.46
652.302	27179.13
652.646	27148.75
652.99	27019.29
653.334	27238.57
653.678	27119.59
654.022	27185.46
654.365	27330.14
654.709	27686.32
655.053	32609.04
655.396	51074.45
655.74	61009.36
656.083	63314.57
656.427	50766.24
656.77	36666.48
657.114	30811.36
657.457	28774.83
657.8	27939.82
658.143	27747.74
658.486	27598.69
658.83	27669.94
659.173	27584.82
659.516	27438
659.858	27515.24
660.201	27612.95
660.544	27699.97
660.887	27727.81
661.229	27734.59
661.572	27659.81
661.915	27796.13
662.257	27845.33
662.6	27866.61
662.942	27664.86
663.284	27623.06
663.627	27556.22
663.969	27470.18
664.311	27549.67
664.653	27526.58
664.995	27700.98
665.337	27812.71
665.679	27698.73
666.021	27649.52
666.363	27404.7
666.705	27508.21
667.046	27599.84
667.388	27561.72
667.73	27652.39
668.071	27702.62
668.413	27652.67
668.754	27755.62
669.096	27669.26
669.437	27735.58
669.778	27699.65
670.119	27840.92
670.461	27791.16
670.802	27836.56
671.143	27838.65
671.484	27983.6
671.825	28164.53
672.165	28177.69
672.506	27928.49
672.847	27690.55
673.188	27640.82
673.528	27599.72
673.869	27653.77
674.21	27813.4
674.55	27834.6
674.89	27875
675.231	27902.22
675.571	27896.58
675.911	27850.01
676.252	27965.94
676.592	28246.69
676.932	28152.88
677.272	27988.09
677.612	28064.56
677.952	28106.14
678.292	28167.45
678.631	28005.05
678.971	27936.23
679.311	28123.38
679.651	28115.1
679.99	28106.42
680.33	27953.49
680.669	27829.01
681.009	27866.78
681.348	27950.77
681.687	28040.34
682.026	28134.97
682.366	28077.8
682.705	28004.98
683.044	28011.8
683.383	27991.13
683.722	28018.25
684.061	27861.58
684.4	28115.2
684.738	28248.53
685.077	28437.6
685.416	28481.67
685.754	28396.69
686.093	28178.48
686.431	28234.88
686.77	28103.99
687.108	28121.69
687.447	28015.71
687.785	28106.69
688.123	28034.24
688.461	28022
688.799	27976.92
689.137	27987.18
689.475	28091.78
689.813	27928.68
690.151	28083.17
690.489	28131.39
690.827	28186.58
691.164	28334.16
691.502	28427.85
691.84	28409.13
692.177	28603.43
692.515	28596.34
692.852	28466.56
693.189	28508.1
693.527	28303.53
693.864	28097.6
694.201	28038.06
694.538	28076.19
694.875	28249.19
695.212	28130.86
695.549	28077.79
695.886	27906.82
696.223	27859.95
696.56	27935.63
696.897	28015.85
697.233	28084.33
697.57	28059.58
697.906	28086.31
698.243	28067.3
698.579	27927.1
698.916	28130.81
699.252	27974.03
699.588	27916.93
699.924	27930.57
700.261	27922.62
700.597	28059.96
700.933	28113.49
701.269	27884.62
701.605	28074.68
701.941	27891
702.276	27876.32
702.612	27819.42
702.948	27845.77
703.283	27857.02
703.619	27923.22
703.954	27966.86
704.29	27904.93
704.625	27852
704.961	27727.03
705.296	27887.58
705.631	27826.6
705.966	28002.7
706.301	28181.87
706.637	28310.87
706.972	28597.6
707.306	28307.04
707.641	28010.23
707.976	27777.56
708.311	27727.09
708.646	27874.22
708.98	27769.24
709.315	27611.57
709.649	27519.01
709.984	27615.61
710.318	27365.39
710.653	27409.24
710.987	27333.43
711.321	27339.33
711.655	27229.18
711.989	27183.3
712.324	27174.08
712.658	27235.35
712.992	27574.63
713.325	27670.36
713.659	27863.88
713.993	27627.46
714.327	27478.6
714.66	27527.25
714.994	27429.31
715.328	27557.72
715.661	27660.12
715.994	27594.3
716.328	27124.29
716.661	27189.13
716.994	27293.42
717.328	27247.07
717.661	27357.48
717.994	27363.43
718.327	27408.9
718.66	27422.66
718.993	27485.98
719.325	27440.64
719.658	27452.98
719.991	27337.32
720.324	27371.47
720.656	27112.08
720.989	26973.51
721.321	26992.57
721.654	26941.56
721.986	26760.75
722.318	26692.07
722.651	26837.14
722.983	26904.64
723.315	27035.12
723.647	26930.54
723.979	26812.16
724.311	26726.83
724.643	26696.73
724.975	26649.12
725.307	26572.64
725.638	26778.18
725.97	26589.64
726.302	26721.87
726.633	26526.59
726.965	26688.76
727.296	26551.67
727.628	26498.31
727.959	26465.23
728.29	26665.19
728.621	26758.95
728.952	26836.4
729.284	26680.33
729.615	26623.04
729.945	26398.59
730.276	26137.59
730.607	26071.93
730.938	25963.86
731.269	26063.03
731.599	25972.89
731.93	25993.14
732.261	25760.23
732.591	25694.9
732.922	25728.32
733.252	25617.87
733.582	25510.13
733.912	25492.17
734.243	25577.3
734.573	25602.77
734.903	25679
735.233	25381.26
735.563	25364.33
735.893	25518.05
736.223	25512.48
736.552	25524.56
736.882	25387.77
737.212	25215.65
737.541	25092.27
737.871	24992.83
738.2	24832.08
738.53	24728.99
738.859	24739.85
739.188	24774.66
739.518	24939.38
739.847	24884.82
740.176	24662.27
740.505	24579.89
740.834	24380.73
741.163	24236.47
741.492	24045.91
741.821	24070.32
742.15	24064.1
742.478	24141.56
742.807	23888.55
743.136	23992.38
743.464	23903.4
743.793	23681.32
744.121	23637.52
744.449	23538.02
744.778	23546.48
745.106	23756.91
745.434	23724.42
745.762	23519.02
746.09	23481.18
746.418	23320.41
746.746	23368.12
747.074	23537.38
747.402	23650.4
747.73	23515.48
748.057	23451.09
748.385	23348.8
748.712	23366.7
749.04	23280.18
749.367	23223.2
749.695	23192.77
750.022	23365.53
750.349	23303.39
750.677	23181.19
751.004	22910.84
751.331	22708.18
751.658	22722.18
751.985	22614.92
752.312	22509.09
752.639	22386.33
752.966	22303.25
753.292	22280.64
753.619	22537.58
753.946	22596.44
754.272	22437.08
754.599	22289.49
754.925	22190.79
755.251	22102.75
755.578	22251.05
755.904	22181.85
756.23	22100.87
756.556	22089.89
756.882	22135.41
757.208	22056.77
757.534	21907.03
757.86	21798.24
758.186	21790.37
758.512	21697.59
758.838	21796.01
759.163	21810.8
759.489	21762.06
759.814	21470.15
760.14	21468.47
760.465	21448.32
760.791	21181.35
761.116	21137.27
761.441	20922.27
761.766	20822.43
762.092	20637.79
762.417	20655.12
762.742	20697.25
763.066	20629.77
763.391	20664.77
763.716	20574.96
764.041	20632.31
764.366	20596.7
764.69	20647.67
765.015	20612.6
765.339	20360.52
765.664	20260.71
765.988	20240.21
766.312	20185.08
766.637	19876.84
766.961	19724.29
767.285	19721.76
767.609	19706.73
767.933	19713.91
768.257	19966.58
768.581	20035.97
768.905	19942
769.229	19992.19
769.552	19917.39
769.876	19959.89
770.2	19792.23
770.523	19624.31
770.847	19467.29
771.17	19412.84
771.493	19441.93
771.817	19285.62
772.14	18993.35
772.463	18886.32
772.786	18904.83
773.109	18785.66
773.432	18864.37
773.755	18776.29
774.078	18588.61
774.401	18482.77
774.724	18363.06
775.046	18453.88
775.369	18483.63
775.692	18434.33
776.014	18143.25
776.336	17931.95
776.659	18095.17
776.981	18152.47
777.303	18176.41
777.626	18118.48
777.948	17969.03
778.27	17945.1
778.592	17820.71
778.914	17883.59
779.236	17980.02
779.557	18046.11
779.879	17953.4
780.201	17766.88
780.523	17755.48
780.844	17673.02
781.166	17730.33
781.487	17767.25
781.809	17796.79
782.13	17713.4
782.451	17608.46
782.772	17816.52
783.094	17822.25
783.415	17854.14
783.736	17643.26
784.057	17719.02
784.378	17836.55
784.698	17818.47
785.019	17954.51
785.34	17736.51
785.661	17831.58
785.981	17896.71
786.302	18018.98
786.622	18210.35
786.943	18305.54
787.263	18061.74
787.583	18033.92
787.903	18001.95
788.224	17970.83
788.544	18011.39
788.864	17851.2
789.184	17879.57
789.504	17850.54
789.824	17912.77
790.143	17839.29
790.463	17882.47
790.783	17878.09
791.102	17907.27
791.422	17960.57
791.741	17770.43
792.061	17796.34
792.38	17862.69
792.699	17901.39
793.019	18054.09
793.338	18016.32
793.657	17913.34
793.976	18086.37
794.295	18119.79
794.614	18279.72
794.933	18163.1
795.252	17936.26
795.57	17698.34
795.889	17561.97
796.208	17564.77
796.526	17505.08
796.845	17619.1
797.163	17440.2
797.482	17258.52
797.8	17205.62
798.118	17152.05
798.436	17292.71
798.754	17285
799.073	17111.96
799.391	16956.66
799.708	16853.03
800.026	16925.2
800.344	17152.83
800.662	17210.61
800.98	17133.55
801.297	16962.58
801.615	16790.59
801.932	16702.18
802.25	16662
802.567	16695.36
802.884	16856.62
803.202	16906.07
803.519	16785.22
803.836	16678.56
804.153	16658.72
804.47	16799.83
804.787	16648.2
805.104	16466.44
805.421	16351.4
805.737	16201.85
806.054	16201.99
806.371	16332.98
806.687	16372.78
807.004	16192.72
807.32	16008.63
807.637	15861.52
807.953	15828.45
808.269	15793.98
808.585	15908.5
808.902	15708.35
809.218	15533.05
809.534	15315.18
809.85	15163.09
810.165	15151.69
810.481	15407.5
810.797	15478.46
811.113	15326.28
811.428	15311.47
811.744	15191.91
812.059	15094.42
812.375	15051.77
812.69	15093.28
813.006	15007.8
813.321	14973.8
813.636	14874.26
813.951	14823.5
814.266	14691.96
814.581	14638.57
814.896	14766.33
815.211	14794.64
815.526	14727.34
815.841	14552.61
816.155	14493.77
816.47	14404.01
816.784	14475.63
817.099	14365.61
817.413	14278.5
817.728	14228.13
818.042	14045.57
818.356	13988.99
818.67	13989.57
818.985	14144.58
819.299	14153.66
819.613	14158.33
819.926	14009.39
820.24	14008.12
820.554	13983.3
820.868	14012.88
821.182	13945.69
821.495	13996.88
821.809	13747.85
822.122	13496.63
822.436	13421.73
822.749	13422.96
823.062	13460.38
823.376	13522.51
823.689	13478.79
824.002	13409.3
824.315	13283.3
824.628	13237.51
824.941	13174.56
825.254	13194.07
825.566	13184.82
825.879	13172.4
826.192	13078.88
826.504	12919.37
826.817	12844.13
827.129	12875.79
827.442	12775.15
827.754	12770.81
828.066	12757.51
828.379	12515.14
828.691	12456.49
829.003	12417.69
829.315	12566
829.627	12622
829.939	12533.22
830.251	12525.44
830.562	12330.39
830.874	12250.45
831.186	12113.16
831.497	12203.34
831.809	12206.54
832.12	12222.76
832.432	12180.49
832.743	12114.62
833.054	12041.54
833.365	12008.73
833.676	12009.48
833.988	12070.78
834.299	12124.94
834.61	12099.11
834.92	11967.04
835.231	11866.05
835.542	11711.14
835.853	11622.12
836.163	11634.87
836.474	11678.63
836.784	11633.36
837.095	11505.51
837.405	11346.47
837.715	11251.99
838.026	11211.11
838.336	11257.11
838.646	11375.68
838.956	11287.29
839.266	11183.55
839.576	10995.77
839.886	10887.59
840.195	10886.18
840.505	10878.97
840.815	10930.04
841.124	10936.56
841.434	10931.2
841.743	10831.84
842.053	10809.11
842.362	10728.49
842.671	10660.96
842.981	10743.04
843.29	10721.77
843.599	10708.99
843.908	10553.2
844.217	10405.95
844.526	10338.61
844.835	10342.47
845.143	10357.95
845.452	10348.97
845.761	10369.8
846.069	10233.26
846.378	10222.61
846.686	10132.17
846.995	10000.57
847.303	9972.62
847.611	10056.09
847.919	10051.81
848.227	10061.4
848.535	9907.1
848.843	9771.55
849.151	9654.38
849.459	9685.17
849.767	9662.09
850.075	9669.01
850.382	9609.57
850.69	9564.85
850.998	9473.59
851.305	9320.08
851.612	9303.48
851.92	9319.43
852.227	9368.6
852.534	9396.47
852.841	9464.11
853.148	9396.21
853.455	9308.23
853.762	9204.1
854.069	9210.59
854.376	9198.85
854.683	9279.41
854.99	9239.69
855.296	9122.27
855.603	8978.16
855.909	8867.47
856.216	8776.72
856.522	8716.08
856.828	8696.13
857.135	8691.88
857.441	8687.35
857.747	8663.41
858.053	8635.21
858.359	8481.68
858.665	8523.77
858.971	8502.25
859.276	8543.64
859.582	8541.44
859.888	8543.56
860.193	8425.4
860.499	8314.04
860.804	8259.17
861.11	8182.55
861.415	8184.1
861.72	8187.6
862.026	8123.87
862.331	8076.12
862.636	7945.95
862.941	7866.73
863.246	7795.56
863.551	7814.87
863.855	7818.14
864.16	7813.22
864.465	7825.38
864.769	7837.3
865.074	7785.23
865.378	7706.54
865.683	7587.13
865.987	7591.52
866.291	7551.36
866.596	7603.57
866.9	7606.35
867.204	7560.43
867.508	7482.13
867.812	7387
868.116	7355.28
868.42	7265.71
868.723	7222.17
869.027	7274.87
869.331	7264.51
869.634	7253.65
869.938	7167.52
870.241	7092.74
870.544	7005.72
870.848	6944.69
871.151	6940.11
871.454	6959.79
871.757	6978.4
872.06	6970.44
872.363	6899.68
872.666	6835.52
872.969	6734.1
873.272	6703.37
873.574	6716.7
873.877	6760.77
874.18	6741.56
874.482	6708.78
874.785	6642.49
875.087	6499.7
875.389	6415.14
875.692	6381.03
875.994	6345.48
876.296	6339
876.598	6347.57
876.9	6359.68
877.202	6331.38
877.504	6270.02
877.805	6212.43
878.107	6196.69
878.409	6176.67
878.71	6223.55
879.012	6229.76
879.313	6189.69
879.615	6167.49
879.916	6034.77
880.217	5950.46
880.518	5893.64
880.82	5903.9
881.121	5890.32
881.422	5894.87
881.723	5887.11
882.023	5857.83
882.324	5836.93
882.625	5747.93
882.926	5663.04
883.226	5648.56
883.527	5601.57
883.827	5614.08
884.128	5603.15
884.428	5599.97
884.728	5508.46
885.028	5415.81
885.328	5336.78
885.629	5267.04
885.929	5243.52
886.228	5220.32
886.528	5199.97
886.828	5193.5
887.128	5183.49
887.427	5130.33
887.727	5077.72
888.027	5013.76
888.326	4993.32
888.625	4996.55
888.925	4981.98
889.224	5014
889.523	5015.3
889.822	4986.34
890.121	4958.92
890.42	4892.1
890.719	4854.37
891.018	4805.87
891.317	4828.05
891.616	4837.77
891.914	4828.7
892.213	4830.27
892.512	4800.88
892.81	4789.19
893.108	4749.66
893.407	4698.06
893.705	4684.61
894.003	4664.65
894.301	4678.47
894.599	4705.96
894.897	4730.03
895.195	4693.97
895.493	4618.1
895.791	4610.25
896.089	4591.56
896.386	4560.33
896.684	4608.08
896.981	4630.56
897.279	4648.6
897.576	4679.71
897.874	4646.41
898.171	4639.15
898.468	4621.51
898.765	4595.2
899.062	4614.41
899.359	4598.04
899.656	4608.72
899.953	4608.84
900.25	4611.37
900.547	4569.07
900.843	4508.92
901.14	4484.49
901.436	4485.73
901.733	4496.06
902.029	4505.8
902.325	4523.51
902.622	4510
902.918	4541.64
903.214	4526.15
903.51	4456.02
903.806	4432.63
904.102	4416.8
904.398	4418.29
904.694	4406.64
904.989	4451.01
905.285	4428.01
905.581	4415.63
905.876	4423.68
906.171	4417.38
906.467	4388.83
906.762	4341.99
907.057	4321.09
907.353	4311.86
907.648	4306.17
907.943	4333.85
908.238	4350.53
908.533	4330.62
908.827	4285.87
909.122	4246.92
909.417	4221.51
909.711	4203.29
910.006	4173.45
910.301	4146.8
910.595	4167.57
910.889	4177.63
911.184	4115.8
911.478	4100
911.772	4067.18
912.066	4036.56
912.36	4009.25
912.654	3985.14
912.948	3973.65
913.242	4028.16
913.536	4023.89
913.829	4004.47
914.123	3976.55
914.416	3911.8
914.71	3875.4
915.003	3835.14
915.297	3796.72
915.59	3788.82
915.883	3782.49
916.176	3781.99
916.469	3784.5
916.762	3767.01
917.055	3716.07
917.348	3655.76
917.641	3613.06
917.934	3554.04
918.226	3504.26
918.519	3478.1
918.811	3477.9
919.104	3479.84
919.396	3462.93
919.689	3437.1
919.981	3400.62
920.273	3347.6
920.565	3319.78
920.857	3275.33
921.149	3276.64
921.441	3278.65
921.733	3286.52
922.025	3282.09
922.316	3274.08
922.608	3260.78
922.9	3210.52
923.191	3158.02
923.483	3142.93
923.774	3100.62
924.065	3095.89
924.357	3080.22
924.648	3066.04
924.939	3072.69
925.23	3081.27
925.521	3072.34
925.812	3061.12
926.102	3028
926.393	2998.61
926.684	2977.8
926.975	2954.32
927.265	2964.24
927.556	2966.33
927.846	2941.13
928.136	2907.97
928.427	2862.66
928.717	2805.5
929.007	2748.07
929.297	2697.76
929.587	2685.8
929.877	2694.29
930.167	2707.3
930.457	2694.39
930.746	2664.78
931.036	2647.45
931.325	2600
931.615	2562.14
931.904	2530.72
932.194	2496.16
932.483	2478.4
932.772	2469.19
933.062	2459.85
933.351	2446.81
933.64	2423.67
933.929	2426.51
934.218	2414.94
934.506	2394.83
934.795	2377.98
935.084	2360.08
935.372	2348.21
935.661	2340.11
935.949	2338.05
936.238	2349.53
936.526	2338.36
936.815	2337.71
937.103	2321.96
937.391	2298.24
937.679	2267.28
937.967	2228.99
938.255	2193.13
938.543	2169.67
938.831	2150.42
939.118	2151.09
939.406	2143.94
939.693	2125.57
939.981	2102.5
940.268	2074.91
940.556	2043.83
940.843	2022.52
941.13	2007.26
941.418	1986.84
941.705	1973.13
941.992	1972.06
942.279	1960.97
942.566	1950.68
942.852	1934.44
943.139	1910.66
943.426	1880.26
943.712	1847.27
943.999	1819.44
944.285	1803.99
944.572	1792.23
944.858	1796.04
945.144	1802.39
945.431	1791.48
945.717	1781.34
946.003	1774.68
946.289	1750.37
946.575	1718.6
946.861	1686.21
947.146	1658.75
947.432	1639.12
947.718	1620.4
948.003	1606.94
948.289	1595.42
948.574	1583.19
948.86	1569.59
949.145	1565.51
949.43	1553.31
949.715	1543.99
950	1521.72
950.285	1502.95
950.57	1489.72
950.855	1481.33
951.14	1476.22
951.425	1477.81
951.709	1472.16
951.994	1460.65
952.278	1449.7
952.563	1429.63
952.847	1405.67
953.132	1390.45
953.416	1384.87
953.7	1368.69
953.984	1360.06
954.268	1356.8
954.552	1350.99
954.836	1345.46
955.12	1334.39
955.404	1315.13
955.687	1301.05
955.971	1280.07
956.254	1266.46
956.538	1250.42
956.821	1245.28
957.105	1239.45
957.388	1239.29
957.671	1231.29
957.954	1232.77
958.237	1228.61
958.52	1218.24
958.803	1202.26
959.086	1180.69
959.369	1162.59
959.652	1146.53
959.934	1135.2
960.217	1126.99
960.499	1118.55
960.782	1110.82
961.064	1103.01
961.346	1094.38
961.629	1084.91
961.911	1068.11
962.193	1058.15
962.475	1045.87
962.757	1039.44
963.039	1033.49
963.32	1028.37
963.602	1020.76
963.884	1016.01
964.165	1005.89
964.447	1002.21
964.728	988.28
965.01	975.93
965.291	961.14
965.572	954.19
965.853	943.97
966.134	928.77
966.415	923.16
966.696	918.74
966.977	912.13
967.258	908.15
967.539	897.67
967.819	888.76
968.1	875.78
968.38	861.73
968.661	849.44
968.941	840.99
969.222	834.51
969.502	830.36
969.782	829.1
970.062	826.73
970.342	823.47
970.622	819
970.902	816.49
971.182	809.28
971.462	804.58
971.741	792.19
972.021	781.64
972.3	771.88
972.58	764.59
972.859	759.61
973.138	756.13
973.418	753.71
973.697	751.37
973.976	748.43
974.255	743.92
974.534	739.17
974.813	730.35
975.092	724.58
975.37	719.55
975.649	711.15
975.928	706.34
976.206	701.22
976.485	698.8
976.763	696.53
977.041	694.64
977.32	689.88
977.598	682.31
977.876	677.48
978.154	670.23
978.432	664.21
978.71	655.38
978.988	649.57
979.265	644.03
979.543	641.05
979.821	634.99
980.098	635.68
980.376	627.69
980.653	622.8
980.93	616.52
981.208	608.43
981.485	603.74
981.762	594.37
982.039	589.59
982.316	587.41
982.593	582.91
982.87	580.63
983.146	577.56
983.423	574.11
983.7	569.84
983.976	567.38
984.253	567.03
984.529	561.59
984.805	560.66
985.082	555.89
985.358	553.44
985.634	550.61
985.91	545.24
986.186	547.33
986.462	541.97
986.738	541.58
987.013	539.82
987.289	534.25
987.565	533.88
987.84	527.44
988.116	523.4
988.391	518.75
988.666	514.8
988.942	511.62
989.217	507.12
989.492	506.9
989.767	502.83
990.042	498.44
990.317	494.56
990.592	493.13
990.866	492.36
991.141	490.07
991.416	487.83
991.69	485.9
991.964	482.11
992.239	479.94
992.513	475.18
992.787	476.48
993.062	472.98
993.336	470.43
993.61	472.05
993.884	466.69
994.158	467.09
994.431	464.68
994.705	465.21
994.979	461.14
995.252	458.01
995.526	456.94
995.799	453.28
996.073	449.29
996.346	448.59
996.619	448.22
996.892	445.91
997.165	445.01
997.438	443.61
997.711	443.29
997.984	439.44
998.257	438.52
998.53	434.33
998.802	436.69
999.075	433.93
999.347	428.9
999.62	429.69
999.892	425.89
1000.165	426.85
1000.437	424.81
1000.709	422.9
1000.981	422.23
1001.253	422.55
1001.525	420.51
1001.797	417.24
1002.068	418.25
1002.34	417.33
1002.612	416.04
1002.883	413.72
1003.155	410.15
1003.426	408.68
1003.698	408.48
1003.969	406.43
1004.24	405.7
1004.511	405.11
1004.782	406.59
1005.053	402.41
1005.324	403.24
1005.595	401.9
1005.866	399.65
1006.136	398.96
1006.407	398.89
1006.678	398.99
1006.948	396.95
1007.218	398.05
1007.489	394.56
1007.759	395.37
1008.029	394.68
1008.299	394.16
1008.569	394.61
1008.839	392.29
1009.109	391.34
1009.379	387.67
1009.649	389.7
1009.918	389.01
1010.188	385.62
1010.458	385.75
1010.727	385.51
1010.996	385.84
1011.266	384.86
1011.535	384.77
1011.804	384.57
1012.073	382.55
1012.342	382
1012.611	382.52
1012.88	380.94
1013.149	379.97
1013.417	380.65
1013.686	378.83
1013.955	378.78
1014.223	378.29
1014.492	377.48
1014.76	377.91
1015.028	377.43
1015.296	375.81
1015.565	376.6
1015.833	376.27
1016.101	375.81
1016.368	374.86
1016.636	374.46
1016.904	374.98
1017.172	372.19
1017.439	372.32
1017.707	370.5
1017.974	371.48
1018.242	371.72
1018.509	370.29
1018.776	371.96
1019.044	371.44
1019.311	371.15
1019.578	369.5
1019.845	371.48
1020.112	368.36
1020.378	368.36
1020.645	368.36
