Data from 190524_Kr_34K_nofilm_FLMS138901_13-34-44-237.txt Node
Date: Fri May 24 13:34:44 EDT 2019
User: pSAM
Spectrometer: FLMS13890
Trigger mode: 0
Integration Time (sec): 5.000000E-3
Scans to average: 1000
Electric dark correction enabled: true
Nonlinearity correction enabled: false
Boxcar width: 0
XAxis mode: Wavelengths
Number of Pixels in Spectrum: 2048
>>>>>Begin Spectral Data<<<<<
342.097	-54.04
342.483	-54.04
342.868	-54.04
343.254	-96.79
343.639	-98.9
344.025	-98.72
344.41	-96.46
344.796	-87.23
345.181	-79.28
345.567	-66.43
345.952	-51.48
346.337	-34.51
346.722	-18.37
347.107	0.15
347.493	19.22
347.878	37.6
348.263	55.56
348.648	77.57
349.033	95.19
349.418	114.97
349.802	132.24
350.187	149.65
350.572	171.05
350.957	259.68
351.342	462.36
351.726	494.06
352.111	511.75
352.495	527.59
352.88	541.53
353.264	553.97
353.649	569.88
354.033	580.31
354.418	594.72
354.802	601.34
355.186	613.04
355.57	620.33
355.955	631.27
356.339	635.04
356.723	640.82
357.107	647.03
357.491	650.98
357.875	654.03
358.259	658.47
358.643	664.19
359.026	665.15
359.41	666.82
359.794	669.61
360.178	670.17
360.561	670.94
360.945	670.75
361.329	673.32
361.712	674.88
362.096	674.7
362.479	677.79
362.862	679.95
363.246	675.04
363.629	672.53
364.012	675.91
364.396	677.1
364.779	679.35
365.162	680.36
365.545	681.7
365.928	687.52
366.311	685.07
366.694	691.59
367.077	692.94
367.46	694.2
367.843	694.9
368.226	694.26
368.608	697.66
368.991	700.26
369.374	700.88
369.756	700.39
370.139	701.37
370.521	701.67
370.904	707.58
371.286	706.36
371.669	708.55
372.051	707.14
372.433	715.41
372.816	716.73
373.198	714.88
373.58	722.33
373.962	724.44
374.344	727.53
374.726	730.27
375.108	735.09
375.49	739.76
375.872	741.37
376.254	736.98
376.636	743.04
377.018	747.08
377.399	748.51
377.781	750.33
378.163	747.45
378.544	740.9
378.926	745.4
379.307	756.25
379.689	769.99
380.07	774.2
380.452	784.62
380.833	787.16
381.214	787.32
381.596	789.3
381.977	797.48
382.358	811.75
382.739	824.32
383.12	825.04
383.501	824.1
383.882	821.4
384.263	824.03
384.644	825.37
385.025	831.56
385.406	832.15
385.787	837.98
386.167	844.39
386.548	852.62
386.929	866.38
387.309	877.15
387.69	884.86
388.07	898.17
388.451	898.45
388.831	899.71
389.211	885.6
389.592	879.16
389.972	881.45
390.352	892.9
390.733	897.85
391.113	900.69
391.493	907.77
391.873	928.59
392.253	938.83
392.633	957.42
393.013	961.19
393.393	960.52
393.772	954.06
394.152	960.98
394.532	962.51
394.912	966.05
395.291	958.47
395.671	966.49
396.05	960.27
396.43	968.92
396.809	970.05
397.189	989.22
397.568	1002.41
397.948	1006.96
398.327	1021.87
398.706	1024.44
399.085	1017.2
399.465	1015.13
399.844	1008.63
400.223	1003.28
400.602	1010.17
400.981	1012.33
401.36	1013.46
401.739	1011.41
402.117	1025.78
402.496	1015.06
402.875	1020.37
403.254	1035.19
403.632	1036.97
404.011	1053.78
404.39	1072.38
404.768	1075.92
405.147	1098.79
405.525	1102.36
405.903	1097.73
406.282	1096.18
406.66	1085.93
407.038	1074.95
407.417	1075.16
407.795	1086.05
408.173	1096.33
408.551	1100.43
408.929	1100.84
409.307	1110.63
409.685	1119.05
410.063	1126.31
410.441	1125.29
410.818	1132.89
411.196	1137.12
411.574	1159.08
411.952	1166.89
412.329	1189.58
412.707	1211.13
413.084	1216.17
413.462	1208.13
413.839	1211.88
414.217	1194.3
414.594	1209.32
414.971	1217.12
415.349	1218.69
415.726	1220.92
416.103	1209.22
416.48	1218.69
416.857	1226.99
417.234	1245.01
417.611	1248.94
417.988	1245.53
418.365	1236.58
418.742	1243.64
419.119	1259.43
419.495	1272.61
419.872	1275.16
420.249	1317.5
420.625	1328.84
421.002	1352.43
421.379	1368.49
421.755	1381.01
422.131	1396.96
422.508	1401.84
422.884	1409.96
423.26	1414.22
423.637	1416.6
424.013	1379.01
424.389	1372.48
424.765	1363.77
425.141	1379.94
425.517	1366.39
425.893	1367.31
426.269	1378.41
426.645	1413.7
427.021	1456.02
427.397	1463.41
427.772	1450.3
428.148	1436.71
428.524	1455.44
428.899	1455.64
429.275	1493.86
429.651	1517.42
430.026	1540.93
430.401	1545.51
430.777	1534.92
431.152	1513.34
431.527	1504.18
431.903	1513.26
432.278	1513
432.653	1528.28
433.028	1571.37
433.403	1606.82
433.778	1643.04
434.153	1608.69
434.528	1588.4
434.903	1595.73
435.278	1618.98
435.653	1631.93
436.027	1637.83
436.402	1652.58
436.777	1662.69
437.151	1674.59
437.526	1695.08
437.9	1705.45
438.275	1731.15
438.649	1716.13
439.023	1729.73
439.398	1725.97
439.772	1728.68
440.146	1751.76
440.52	1806.51
440.895	1851.38
441.269	1891.44
441.643	1892.67
442.017	1869.38
442.391	1866.99
442.765	1876.05
443.138	1870.25
443.512	1896.72
443.886	1905.56
444.26	1907.12
444.633	1917.01
445.007	1917.34
445.38	1931.93
445.754	1926.28
446.127	1939.39
446.501	1939.16
446.874	1931.77
447.248	1931.97
447.621	1953.36
447.994	1953.6
448.367	1969.63
448.741	1974.22
449.114	1958.38
449.487	1976.99
449.86	1990.16
450.233	1987.13
450.606	1979.77
450.978	1969.26
451.351	1987.44
451.724	1993.85
452.097	1992.3
452.469	2008.54
452.842	2002.94
453.215	2009.53
453.587	2011.48
453.96	2040.46
454.332	2043.66
454.704	2067.9
455.077	2075.03
455.449	2081.89
455.821	2078.02
456.194	2115.47
456.566	2130.91
456.938	2160.72
457.31	2184.58
457.682	2228.47
458.054	2224.24
458.426	2246.41
458.798	2257.13
459.17	2268.27
459.541	2259.41
459.913	2239.97
460.285	2243.24
460.656	2262.45
461.028	2254.04
461.399	2273.54
461.771	2283.79
462.142	2321.73
462.514	2371.02
462.885	2389.03
463.256	2463.22
463.628	2471.67
463.999	2510.21
464.37	2552.88
464.741	2563
465.112	2541.07
465.483	2548.9
465.854	2576.29
466.225	2545
466.596	2546.51
466.967	2596.26
467.338	2610.02
467.708	2656.68
468.079	2669
468.45	2659.85
468.82	2651.67
469.191	2668.44
469.561	2688.35
469.932	2728.34
470.302	2722.43
470.673	2778.87
471.043	2815.05
471.413	2847.64
471.783	2900.23
472.154	2963.31
472.524	2996.99
472.894	3069.48
473.264	3079.59
473.634	3088.41
474.004	3105.52
474.374	3188.29
474.743	3211.44
475.113	3275.34
475.483	3307.33
475.853	3354.59
476.222	3387.66
476.592	3470.58
476.961	3469.26
477.331	3504.27
477.7	3556.91
478.07	3651.23
478.439	3655.79
478.808	3713.28
479.178	3770.36
479.547	3851.41
479.916	3880.6
480.285	3947.13
480.654	3964.67
481.023	4037.33
481.392	4081.23
481.761	4130.66
482.13	4186.2
482.499	4250.91
482.867	4298.58
483.236	4420.75
483.605	4529.66
483.973	4589.15
484.342	4690.86
484.71	4917
485.079	5676.61
485.447	6172.5
485.816	6453.24
486.184	5884.11
486.552	5379.09
486.921	5153.01
487.289	5070.45
487.657	5084.26
488.025	5092.6
488.393	5132.69
488.761	5200.45
489.129	5331.1
489.497	5359.04
489.865	5470.69
490.233	5495.32
490.6	5542.62
490.968	5551.44
491.336	5589.51
491.703	5658.03
492.071	5743.47
492.438	5810.6
492.806	5856.96
493.173	5928.72
493.541	5948.94
493.908	5946.26
494.275	5973.4
494.642	5993.01
495.01	6013.03
495.377	6081.35
495.744	6149.5
496.111	6266.38
496.478	6328.85
496.845	6311.63
497.211	6330.74
497.578	6406.32
497.945	6513.4
498.312	6602.43
498.678	6664.31
499.045	6722.29
499.412	6687.2
499.778	6700.69
500.145	6738.99
500.511	6802.88
500.878	6880.13
501.244	6959.04
501.61	6976.01
501.976	6967.53
502.343	7027.36
502.709	7121.94
503.075	7097.32
503.441	7095.95
503.807	7113.78
504.173	7136.45
504.539	7203.4
504.905	7245.32
505.27	7320.29
505.636	7338.89
506.002	7419.69
506.367	7415.72
506.733	7408.55
507.099	7399.15
507.464	7468.3
507.829	7492.59
508.195	7563.99
508.56	7579.78
508.926	7613.98
509.291	7650.47
509.656	7717.2
510.021	7741.7
510.386	7820.2
510.751	7852.49
511.116	7902.64
511.481	7918.37
511.846	7973.85
512.211	7982.08
512.576	8038.51
512.941	8049.85
513.305	8090.95
513.67	8163.82
514.035	8200.99
514.399	8271.01
514.764	8272.47
515.128	8306.19
515.493	8330.22
515.857	8348.11
516.221	8345.47
516.585	8388.41
516.95	8436.33
517.314	8470.99
517.678	8473.28
518.042	8536.56
518.406	8639.9
518.77	8630.55
519.134	8695.26
519.498	8755.01
519.862	8754.5
520.225	8740.84
520.589	8849.25
520.953	8908.22
521.316	8937.16
521.68	8944.39
522.043	9015.23
522.407	9010.42
522.77	9032.54
523.134	9141.79
523.497	9141.71
523.86	9207.25
524.223	9241.97
524.587	9289.81
524.95	9304.26
525.313	9390.43
525.676	9462.47
526.039	9499.7
526.402	9525.74
526.765	9620.03
527.127	9673.93
527.49	9707.01
527.853	9754.61
528.215	9770.31
528.578	9907.77
528.941	9913.02
529.303	9942.43
529.666	9956.84
530.028	10013.56
530.39	10058.89
530.753	10108.5
531.115	10179.55
531.477	10233.7
531.839	10318.69
532.201	10356.27
532.564	10480.76
532.926	10557.99
533.287	10714.24
533.649	10764.8
534.011	10791.96
534.373	10871.84
534.735	10926.28
535.097	10981.83
535.458	11049.19
535.82	11089.53
536.181	11114.67
536.543	11154.19
536.904	11135.24
537.266	11372.78
537.627	11498.63
537.988	11522.17
538.35	11556.14
538.711	11648.05
539.072	11715.79
539.433	11657.75
539.794	11753.75
540.155	11823.52
540.516	11873.58
540.877	11906.43
541.238	11968.98
541.599	12056.55
541.959	12082.39
542.32	12188.93
542.681	12234.13
543.041	12280.62
543.402	12382.13
543.762	12476.31
544.123	12421.68
544.483	12503.42
544.844	12501.83
545.204	12556.16
545.564	12562.2
545.924	12661.87
546.284	12718.17
546.644	12822.38
547.004	12911.22
547.364	13031.18
547.724	13101.46
548.084	13096.08
548.444	13134.33
548.804	13150.6
549.164	13232.03
549.523	13294.27
549.883	13303.13
550.242	13267.16
550.602	13313.18
550.961	13291.28
551.321	13342.38
551.68	13463.93
552.04	13517.47
552.399	13643.12
552.758	13739.86
553.117	13752.9
553.476	13947.36
553.835	13965.02
554.194	13957
554.553	13991.1
554.912	14027.86
555.271	14128.11
555.63	14218.47
555.989	14270.3
556.347	14265.65
556.706	14229.42
557.065	14238.65
557.423	14377.34
557.782	14415.42
558.14	14421.27
558.499	14460.64
558.857	14577.91
559.215	14577.41
559.573	14680.47
559.932	14722.59
560.29	14823.64
560.648	14830.34
561.006	14959.79
561.364	14961.75
561.722	14970.12
562.08	15018.17
562.438	14976.54
562.795	15143.74
563.153	15211.73
563.511	15312.76
563.868	15363.66
564.226	15436.84
564.583	15507.43
564.941	15444.85
565.298	15707.73
565.656	15635.23
566.013	15714.97
566.37	15791.51
566.727	16055.61
567.085	16191.85
567.442	16331.04
567.799	16391.55
568.156	16462.3
568.513	16649.48
568.87	16987.09
569.226	17321.98
569.583	17535.6
569.94	17379.16
570.297	17524.59
570.653	17541.03
571.01	17902.43
571.366	18181.25
571.723	18101.12
572.079	17894.58
572.436	17975.26
572.792	18434.18
573.148	18846.33
573.505	19151.57
573.861	19212.11
574.217	19209.37
574.573	19314.75
574.929	19245.57
575.285	19322.15
575.641	19530.53
575.997	19742.26
576.352	19853.02
576.708	19947.58
577.064	20511.02
577.42	20771.29
577.775	20666.48
578.131	20195.81
578.486	19869.3
578.842	20072.35
579.197	20489.69
579.552	20993.02
579.908	20890.71
580.263	20730.45
580.618	21268.72
580.973	22210.35
581.328	23133.77
581.683	22959.42
582.038	21799.73
582.393	20882.3
582.748	20233.58
583.103	20035.26
583.458	20341.2
583.812	20712.74
584.167	21288.83
584.522	21458.55
584.876	21512.49
585.231	21522.67
585.585	21116.36
585.939	20790.05
586.294	20701.17
586.648	20884.07
587.002	21238.51
587.356	21511.73
587.711	21830.54
588.065	21665.61
588.419	21358.21
588.773	21043.74
589.127	20672.75
589.48	20734.28
589.834	20688.52
590.188	20700.86
590.542	20738.08
590.895	20706.93
591.249	20831.81
591.603	20685.4
591.956	21143.98
592.309	21567.34
592.663	21880.97
593.016	21948.18
593.369	21717.16
593.723	21418.51
594.076	21781.7
594.429	22098.63
594.782	22327.58
595.135	22309.74
595.488	21912.82
595.841	21712.06
596.194	21479.3
596.547	21541.89
596.899	21702.69
597.252	21778.92
597.605	21778.09
597.957	21778.29
598.31	22029.64
598.662	22165.12
599.015	22137.34
599.367	21918.78
599.719	22120.17
600.072	22304.34
600.424	22428.36
600.776	22534.12
601.128	22677.45
601.48	22561.08
601.832	22639.75
602.184	22814.86
602.536	23097.45
602.888	23432.16
603.24	23370.38
603.592	23181.76
603.943	22750.6
604.295	22569.27
604.646	22675.45
604.998	22930.51
605.349	23130.88
605.701	22929.15
606.052	23040.91
606.404	22973.4
606.755	23064.99
607.106	22995.3
607.457	22882.49
607.808	22987.58
608.159	22967.48
608.51	22871.14
608.861	22981.47
609.212	23141.04
609.563	23413.61
609.914	23598.48
610.265	23458.25
610.615	23527.57
610.966	23793.85
611.316	23749.47
611.667	23848.65
612.017	23931.27
612.368	23567.38
612.718	23966.86
613.068	23939.37
613.419	24010.46
613.769	24013.75
614.119	23970.45
614.469	23920.94
614.819	23854.22
615.169	23949.9
615.519	24082.36
615.869	23899.82
616.219	23773.38
616.568	23884.6
616.918	23949.08
617.268	24144.83
617.617	23981.98
617.967	23961.67
618.316	23844.03
618.666	23750.09
619.015	23985.11
619.364	24224.77
619.714	24398.07
620.063	24292.16
620.412	24105.16
620.761	24031.48
621.11	24217.89
621.459	24295.34
621.808	24540.4
622.157	24736.69
622.506	24833.3
622.855	24897.51
623.203	24802.4
623.552	24729.99
623.901	24691.81
624.249	24589.74
624.598	24648.97
624.946	24537.81
625.295	24535.6
625.643	24627.56
625.991	24749.97
626.34	24681.58
626.688	24879.37
627.036	25070.43
627.384	25065.89
627.732	25093.98
628.08	25023.08
628.428	24849.67
628.776	25017.1
629.124	24909.03
629.471	24838.49
629.819	25001.39
630.167	24991.76
630.514	25066.41
630.862	24974.7
631.209	25164.65
631.557	25181.08
631.904	25290.25
632.251	25411.77
632.599	25300.83
632.946	25457.34
633.293	25537.45
633.64	25368.06
633.987	25458.23
634.334	25426.36
634.681	25383.99
635.028	25544.58
635.375	25593.08
635.722	25763.46
636.068	25833.86
636.415	25857.49
636.762	25892
637.108	26017.18
637.455	25948.64
637.801	26116.86
638.147	26249.36
638.494	26167.49
638.84	26323.66
639.186	26133.19
639.532	26224.96
639.878	26427.64
640.225	26420.34
640.571	26413.73
640.916	26416.59
641.262	26461.24
641.608	26312.34
641.954	26491.52
642.3	26522.35
642.645	26405.86
642.991	26444.93
643.337	26523.27
643.682	26588.92
644.028	26567.63
644.373	26779.35
644.718	26894.11
645.064	26939.19
645.409	26831.45
645.754	26986.2
646.099	27117.3
646.444	26985.79
646.789	27096.13
647.134	27036.17
647.479	27164.61
647.824	27396.29
648.169	27458.44
648.513	27617.63
648.858	27626.79
649.203	27665.23
649.547	27620.73
649.892	27549.08
650.236	27483.98
650.581	27485.17
650.925	27495.44
651.269	27471.58
651.613	27563.48
651.958	27373.23
652.302	27439.45
652.646	27431.15
652.99	27246.09
653.334	27368.07
653.678	27313.92
654.022	27554.72
654.365	27591.73
654.709	27794.6
655.053	30444.67
655.396	49461.81
655.74	62038.03
656.083	63575.37
656.427	54326.66
656.77	36585.25
657.114	30806.62
657.457	29264.24
657.8	28503.42
658.143	28164.99
658.486	28059.41
658.83	28009.27
659.173	27883.94
659.516	27888.65
659.858	27819.67
660.201	27737.53
660.544	27736.34
660.887	27721.89
661.229	27908.41
661.572	27956.98
661.915	28176.76
662.257	28139.03
662.6	28113.55
662.942	28101.74
663.284	27961.21
663.627	27987.47
663.969	27892.1
664.311	28003.48
664.653	27944.35
664.995	28007.37
665.337	28050.14
665.679	27987.19
666.021	27965.19
666.363	27906.65
666.705	28078.74
667.046	28120.88
667.388	28051.02
667.73	28081.79
668.071	28137.06
668.413	27957.44
668.754	28076.23
669.096	27918.05
669.437	27999.85
669.778	27766.67
670.119	27699.75
670.461	27584.8
670.802	27679.69
671.143	27733
671.484	27967.6
671.825	28008.12
672.165	27960.48
672.506	27997.38
672.847	28070.7
673.188	28028.67
673.528	27973.4
673.869	27979.13
674.21	28245.54
674.55	28241.82
674.89	28038.17
675.231	28124.08
675.571	28210.72
675.911	28081.48
676.252	28106.9
676.592	28306.25
676.932	28233.71
677.272	28188.54
677.612	28279.27
677.952	28381.24
678.292	28394.18
678.631	28228.36
678.971	28136.45
679.311	28340.15
679.651	28441.8
679.99	28374.98
680.33	28044.37
680.669	27700.7
681.009	27841.48
681.348	27973.2
681.687	28056.1
682.026	28089.95
682.366	28015.68
682.705	28221.9
683.044	28307.83
683.383	28285.94
683.722	28424.82
684.061	28426.55
684.4	28606.88
684.738	28713.87
685.077	28758.96
685.416	28773.99
685.754	28684.19
686.093	28631.97
686.431	28734.85
686.77	28631.2
687.108	28724.65
687.447	28648.82
687.785	28727.26
688.123	28634.41
688.461	28630.95
688.799	28370.6
689.137	28326.61
689.475	28370.96
689.813	28215.31
690.151	28476.77
690.489	28396.46
690.827	28437.75
691.164	28711.55
691.502	28712.87
691.84	28344.03
692.177	28341.36
692.515	28505.8
692.852	28529.72
693.189	28613.46
693.527	28460.78
693.864	28452.36
694.201	28399.88
694.538	28437.61
694.875	28453.31
695.212	28311.54
695.549	28420.9
695.886	28226
696.223	28037.7
696.56	28278.34
696.897	28280.92
697.233	28534.07
697.57	28501.03
697.906	28439.35
698.243	28335.18
698.579	28213.24
698.916	28459.83
699.252	28290.66
699.588	28260.46
699.924	28286.35
700.261	28310.67
700.597	28357.19
700.933	28324.99
701.269	27997.27
701.605	28135.87
701.941	28167.77
702.276	28178.19
702.612	27977.21
702.948	27974.05
703.283	28047.68
703.619	28084.89
703.954	28012.78
704.29	27767.05
704.625	27611.94
704.961	27583.3
705.296	27691.81
705.631	27504.91
705.966	27644.81
706.301	27849.01
706.637	28028.53
706.972	28352.83
707.306	28262.12
707.641	28061.82
707.976	28151.39
708.311	28211.9
708.646	28164.75
708.98	28034.92
709.315	28078.67
709.649	28125.26
709.984	28170.56
710.318	28086.38
710.653	28299.88
710.987	28356.69
711.321	28358.75
711.655	28105.64
711.989	27966.6
712.324	28105.1
712.658	28103.4
712.992	28294.2
713.325	28070.56
713.659	27994.65
713.993	27898.99
714.327	27929.46
714.66	27953.05
714.994	27738.47
715.328	27905.86
715.661	27937.14
715.994	27857.22
716.328	27452.5
716.661	27547.97
716.994	27693.07
717.328	27539
717.661	27475.54
717.994	27308.24
718.327	27197.32
718.66	27077.44
718.993	27243.13
719.325	27309.48
719.658	27091.43
719.991	26830.66
720.324	27022.17
720.656	27041.32
720.989	27144.49
721.321	27236.1
721.654	27349.27
721.986	27275.38
722.318	27233.66
722.651	27245.11
722.983	27052.83
723.315	27132.33
723.647	27219.83
723.979	27144.12
724.311	26977.59
724.643	26713.95
724.975	26832.37
725.307	27033.87
725.638	27149.87
725.97	26896.6
726.302	26907.47
726.633	26821.53
726.965	27073.32
727.296	26929.37
727.628	26806.54
727.959	26621.4
728.29	26905.59
728.621	26814.74
728.952	26822.24
729.284	26406.8
729.615	26275.36
729.945	26168.32
730.276	26142.24
730.607	26262.02
730.938	26157.84
731.269	26128.6
731.599	26140.08
731.93	26098.56
732.261	25897.18
732.591	25744.78
732.922	25652.53
733.252	25643.82
733.582	25772.74
733.912	25806.78
734.243	25842.49
734.573	25607.04
734.903	25613.96
735.233	25401.69
735.563	25404.91
735.893	25311.11
736.223	25075.55
736.552	25025.06
736.882	25130.47
737.212	25123.27
737.541	24953.39
737.871	24769.2
738.2	24775.1
738.53	24727.75
738.859	24702.7
739.188	24690.67
739.518	24720.95
739.847	24876.15
740.176	24543.18
740.505	24444.57
740.834	24199.64
741.163	24088.27
741.492	23975.92
741.821	24099.13
742.15	24073.7
742.478	23985.1
742.807	23658.73
743.136	23699.95
743.464	23771.81
743.793	23775.02
744.121	23829.35
744.449	23730.43
744.778	23647.44
745.106	23899.03
745.434	23921.82
745.762	23616.68
746.09	23550.39
746.418	23400.72
746.746	23469.25
747.074	23446.15
747.402	23461.05
747.73	23092.04
748.057	22942.77
748.385	22850.61
748.712	22938.33
749.04	22936.62
749.367	22813.38
749.695	22604.17
750.022	22840.73
750.349	22961.96
750.677	23070.79
751.004	22926.87
751.331	22758.35
751.658	22736.38
751.985	22734.85
752.312	22626.48
752.639	22529.11
752.966	22377.94
753.292	22282.59
753.619	22565.38
753.946	22636.11
754.272	22420.26
754.599	22238.91
754.925	22066.87
755.251	22028.01
755.578	22177.64
755.904	22170.03
756.23	22030.11
756.556	21917.94
756.882	22059.65
757.208	22013.43
757.534	22027.91
757.86	22014.68
758.186	21952.96
758.512	21669.33
758.838	21555.29
759.163	21565.61
759.489	21602.18
759.814	21267.76
760.14	21283.2
760.465	21291.61
760.791	21171.19
761.116	21170.54
761.441	21032.04
761.766	20881.49
762.092	20643.38
762.417	20567.4
762.742	20763.41
763.066	20801.69
763.391	20723.68
763.716	20542.05
764.041	20477.66
764.366	20453.7
764.69	20579.75
765.015	20636.42
765.339	20289.93
765.664	20113.13
765.988	20009.98
766.312	19945.67
766.637	19818.72
766.961	19724.26
767.285	19473.95
767.609	19354.94
767.933	19438.99
768.257	19828.23
768.581	19820.47
768.905	19749.54
769.229	19628.43
769.552	19527.58
769.876	19651.43
770.2	19637.55
770.523	19569.15
770.847	19316.9
771.17	19118
771.493	19135.68
771.817	19207.6
772.14	19007.46
772.463	18860.66
772.786	18792.45
773.109	18667.5
773.432	18788.1
773.755	18755.83
774.078	18702.24
774.401	18438.42
774.724	18144.16
775.046	18101.46
775.369	18142.49
775.692	18243.14
776.014	18114.68
776.336	17835.77
776.659	17781.64
776.981	17809.51
777.303	17876.85
777.626	17899.73
777.948	17755.05
778.27	17708.67
778.592	17605.19
778.914	17693.24
779.236	17743.22
779.557	17800.65
779.879	17797.68
780.201	17606.29
780.523	17609.39
780.844	17744.79
781.166	18025.99
781.487	18129.58
781.809	18050.88
782.13	17967.23
782.451	17932.68
782.772	18150.38
783.094	18151.28
783.415	18185.13
783.736	17968.97
784.057	17920.64
784.378	17858.22
784.698	17998.11
785.019	18292.9
785.34	18143.67
785.661	18145.54
785.981	18099.24
786.302	17962.99
786.622	18039.58
786.943	18296.41
787.263	18120.45
787.583	17997.23
787.903	17941.97
788.224	17990.76
788.544	18262.67
788.864	18343.55
789.184	18397.27
789.504	18178.39
789.824	18030.37
790.143	17950.45
790.463	18098.36
790.783	18236.81
791.102	18297.74
791.422	18323.25
791.741	18100.07
792.061	17986.42
792.38	18178.21
792.699	18204.05
793.019	18300.04
793.338	18035.5
793.657	17807.96
793.976	17944.37
794.295	17969.93
794.614	18152.73
794.933	17995.01
795.252	17790.13
795.57	17531.01
795.889	17368.19
796.208	17348.38
796.526	17337.69
796.845	17471.61
797.163	17361.94
797.482	17248.76
797.8	17286.76
798.118	17196.41
798.436	17268.43
798.754	17348.04
799.073	17235.97
799.391	17118.34
799.708	16967.55
800.026	16955.54
800.344	17180.2
800.662	17476.53
800.98	17443.37
801.297	17229.71
801.615	17030.79
801.932	16924.82
802.25	16876.42
802.567	16935.81
802.884	17046.08
803.202	16976.5
803.519	16743.13
803.836	16564.83
804.153	16428.61
804.47	16523.33
804.787	16526.79
805.104	16530.31
805.421	16466.99
805.737	16267.93
806.054	16176.18
806.371	16240.56
806.687	16285.48
807.004	16174.47
807.32	16079.69
807.637	15867.47
807.953	15724.73
808.269	15824.44
808.585	16059.69
808.902	15913.55
809.218	15825.53
809.534	15636.17
809.85	15464.4
810.165	15365.03
810.481	15494.05
810.797	15641.61
811.113	15654.53
811.428	15570.7
811.744	15330.67
812.059	15161.31
812.375	15170.74
812.69	15223.15
813.006	15257.34
813.321	15343.26
813.636	15154.95
813.951	14973.04
814.266	14873.54
814.581	14845.02
814.896	14886.4
815.211	14974.69
815.526	14928.47
815.841	14684.84
816.155	14509.42
816.47	14442.5
816.784	14605.8
817.099	14617.09
817.413	14554.86
817.728	14402.91
818.042	14193.43
818.356	14074.18
818.67	14038.72
818.985	14167.49
819.299	14198.32
819.613	14250.14
819.926	14021.14
820.24	13941.77
820.554	13929.95
820.868	14088.2
821.182	14118.87
821.495	14228.91
821.809	14022.17
822.122	13721.09
822.436	13625.13
822.749	13536.92
823.062	13597.01
823.376	13707.35
823.689	13738.86
824.002	13673.34
824.315	13456.4
824.628	13307.87
824.941	13253.46
825.254	13256.07
825.566	13305.59
825.879	13452.74
826.192	13322.82
826.504	13050.11
826.817	12913.79
827.129	12936.26
827.442	12947.34
827.754	13009.36
828.066	13068.47
828.379	12853.89
828.691	12680.2
829.003	12416.21
829.315	12374.7
829.627	12441.66
829.939	12408.29
830.251	12463.4
830.562	12320.59
830.874	12237.04
831.186	12113.77
831.497	12163.3
831.809	12178.9
832.12	12270.22
832.432	12317.06
832.743	12352.65
833.054	12292.78
833.365	12116.19
833.676	12096.98
833.988	12169.56
834.299	12284.51
834.61	12382.65
834.92	12282.18
835.231	12127.76
835.542	11895.83
835.853	11769.78
836.163	11812.95
836.474	11959.39
836.784	12013.89
837.095	11938.3
837.405	11770.41
837.715	11618.59
838.026	11492.3
838.336	11407.97
838.646	11458.94
838.956	11447.51
839.266	11440.1
839.576	11273.29
839.886	11180.53
840.195	11123.08
840.505	11077.64
840.815	11109.98
841.124	11136.5
841.434	11121.57
841.743	10961.37
842.053	10832.91
842.362	10668.09
842.671	10661.3
842.981	10739.58
843.29	10749.59
843.599	10827.98
843.908	10726.28
844.217	10579.07
844.526	10469.72
844.835	10376.8
845.143	10327.88
845.452	10350.89
845.761	10435.94
846.069	10326.82
846.378	10348.55
846.686	10232.02
846.995	10108.81
847.303	10014.71
847.611	10060.33
847.919	10065.97
848.227	10137.89
848.535	10045.17
848.843	9904.18
849.151	9721.74
849.459	9659.41
849.767	9569.96
850.075	9581.05
850.382	9606.83
850.69	9634.96
850.998	9577.77
851.305	9430.02
851.612	9393.5
851.92	9395.31
852.227	9459.54
852.534	9518.43
852.841	9585.94
853.148	9586.12
853.455	9534.83
853.762	9355.05
854.069	9265.94
854.376	9225.2
854.683	9286.26
854.99	9316.22
855.296	9319.94
855.603	9256.88
855.909	9177.81
856.216	9048.29
856.522	8978.18
856.828	8957.21
857.135	9017.88
857.441	9114.93
857.747	9095.95
858.053	9101.82
858.359	8882.93
858.665	8851.02
858.971	8776.42
859.276	8795.17
859.582	8798.47
859.888	8830.45
860.193	8731.02
860.499	8601.65
860.804	8527.41
861.11	8423.44
861.415	8446.71
861.72	8511.54
862.026	8498.42
862.331	8532.63
862.636	8478
862.941	8408.83
863.246	8286.94
863.551	8207.14
863.855	8181.91
864.16	8209.71
864.465	8242.28
864.769	8284.3
865.074	8197.69
865.378	8027.92
865.683	7875.63
865.987	7886.24
866.291	7814.5
866.596	7865.99
866.9	7839.91
867.204	7796.11
867.508	7699
867.812	7568.82
868.116	7456.27
868.42	7322.67
868.723	7287.85
869.027	7359.51
869.331	7388.63
869.634	7381.81
869.938	7266.68
870.241	7163.83
870.544	7046.95
870.848	6986.26
871.151	7019.82
871.454	7056.48
871.757	7120.63
872.06	7118.17
872.363	7055.69
872.666	6999.97
872.969	6884.21
873.272	6796.67
873.574	6782.94
873.877	6813.41
874.18	6860.02
874.482	6901.78
874.785	6892.54
875.087	6755.02
875.389	6660.19
875.692	6577.35
875.994	6546.57
876.296	6568.98
876.598	6617.01
876.9	6637.59
877.202	6611.51
877.504	6556.63
877.805	6465.3
878.107	6396.2
878.409	6314.09
878.71	6350.03
879.012	6379.88
879.313	6416.99
879.615	6485.72
879.916	6421.6
880.217	6323.79
880.518	6231.57
880.82	6184.81
881.121	6144.68
881.422	6187.84
881.723	6213.54
882.023	6200.23
882.324	6198.26
882.625	6107.2
882.926	6033.62
883.226	6003.78
883.527	5917.06
883.827	5938.43
884.128	5963.54
884.428	6001.77
884.728	5938.7
885.028	5863.14
885.328	5719.41
885.629	5597.53
885.929	5552.43
886.228	5516.55
886.528	5494.36
886.828	5492.98
887.128	5508.13
887.427	5501.61
887.727	5464.03
888.027	5377.82
888.326	5331.09
888.625	5283.12
888.925	5210.31
889.224	5220.58
889.523	5236.41
889.822	5237.18
890.121	5229.35
890.42	5160.15
890.719	5107.13
891.018	5022.26
891.317	5026.31
891.616	5058.26
891.914	5078
892.213	5096.15
892.512	5103.71
892.81	5100.4
893.108	5063.56
893.407	5012.17
893.705	5004.5
894.003	4990.44
894.301	5034.15
894.599	5078.35
894.897	5107.38
895.195	5082.55
895.493	5016.68
895.791	5008.43
896.089	4982.54
896.386	4929.4
896.684	4963.23
896.981	4963.56
897.279	4985.79
897.576	5051.92
897.874	5002.7
898.171	4998.45
898.468	4973.96
898.765	4925.24
899.062	4914.42
899.359	4872.77
899.656	4876.9
899.953	4905.36
900.25	4944.1
900.547	4935.53
900.843	4893.81
901.14	4855.82
901.436	4813.23
901.733	4785.89
902.029	4776.6
902.325	4806.79
902.622	4804.75
902.918	4832.64
903.214	4851.16
903.51	4803.65
903.806	4768.06
904.102	4711.58
904.398	4675.98
904.694	4639.59
904.989	4674.1
905.285	4656.72
905.581	4651.02
905.876	4664.2
906.171	4626.1
906.467	4572.01
906.762	4518.8
907.057	4476.6
907.353	4492.74
907.648	4513.5
907.943	4563.87
908.238	4596.39
908.533	4586.52
908.827	4561
909.122	4513.6
909.417	4477.54
909.711	4456.98
910.006	4432.1
910.301	4413.31
910.595	4457.49
910.889	4500.76
911.184	4471.54
911.478	4485.38
911.772	4473.07
912.066	4405.09
912.36	4323.64
912.654	4244.26
912.948	4182.44
913.242	4214.06
913.536	4206.08
913.829	4199.98
914.123	4183.46
914.416	4126.17
914.71	4101.89
915.003	4072.67
915.297	4006.44
915.59	3961.91
915.883	3947.31
916.176	3967.63
916.469	3988.74
916.762	4002.27
917.055	3978.11
917.348	3936.81
917.641	3907.12
917.934	3861.63
918.226	3816.21
918.519	3783.92
918.811	3780.21
919.104	3791.53
919.396	3777.95
919.689	3769.18
919.981	3729.74
920.273	3686.28
920.565	3642.42
920.857	3570.09
921.149	3534.76
921.441	3521.55
921.733	3521.72
922.025	3522.83
922.316	3531.63
922.608	3530.82
922.9	3488.5
923.191	3424.63
923.483	3372.85
923.774	3297.73
924.065	3266.94
924.357	3239.58
924.648	3217.96
924.939	3214.06
925.23	3209.18
925.521	3193.05
925.812	3157.42
926.102	3101.42
926.393	3055.6
926.684	3027.91
926.975	2998.96
927.265	2990.34
927.556	2989.57
927.846	2984.54
928.136	2972.4
928.427	2951.25
928.717	2918.46
929.007	2882.15
929.297	2829.11
929.587	2784.56
929.877	2763.77
930.167	2752.4
930.457	2740.61
930.746	2729
931.036	2739.01
931.325	2726.12
931.615	2709.67
931.904	2690.53
932.194	2637.75
932.483	2599.63
932.772	2583.13
933.062	2567.25
933.351	2550.29
933.64	2531.58
933.929	2534.63
934.218	2519.51
934.506	2484.45
934.795	2447.15
935.084	2402.88
935.372	2367.02
935.661	2339.37
935.949	2323.52
936.238	2322.34
936.526	2309.28
936.815	2305.68
937.103	2310.21
937.391	2305.35
937.679	2278.13
937.967	2246.94
938.255	2208.01
938.543	2183.1
938.831	2159.93
939.118	2162.58
939.406	2157.5
939.693	2142.69
939.981	2119.02
940.268	2109.41
940.556	2078.93
940.843	2061.59
941.13	2034.52
941.418	2012
941.705	1989.84
941.992	1975.85
942.279	1970.96
942.566	1965.56
942.852	1956.9
943.139	1943.18
943.426	1923.76
943.712	1892.05
943.999	1860.31
944.285	1839.87
944.572	1816.57
944.858	1800.78
945.144	1799.57
945.431	1787.11
945.717	1767.87
946.003	1755.21
946.289	1732.34
946.575	1703.3
946.861	1677.02
947.146	1644.4
947.432	1622.51
947.718	1602.03
948.003	1588.59
948.289	1579.52
948.574	1566.96
948.86	1561.84
949.145	1563.79
949.43	1552.74
949.715	1542.72
950	1525
950.285	1497.6
950.57	1479.56
950.855	1460.52
951.14	1447.81
951.425	1439.23
951.709	1435.93
951.994	1426.08
952.278	1417.23
952.563	1397.63
952.847	1373.13
953.132	1353.11
953.416	1338.55
953.7	1322.9
953.984	1310.55
954.268	1299.33
954.552	1286.35
954.836	1276.64
955.12	1271.59
955.404	1264.68
955.687	1254.01
955.971	1242.71
956.254	1229.34
956.538	1210.9
956.821	1199
957.105	1188.99
957.388	1183.82
957.671	1170.84
957.954	1164.52
958.237	1165.33
958.52	1151.46
958.803	1145.19
959.086	1132.9
959.369	1121.96
959.652	1109.8
959.934	1101.26
960.217	1087.3
960.499	1079.99
960.782	1068.88
961.064	1061.86
961.346	1052.88
961.629	1048.19
961.911	1039.04
962.193	1028
962.475	1016.03
962.757	1002.19
963.039	987.44
963.32	977.63
963.602	967.48
963.884	958.04
964.165	953.82
964.447	949.4
964.728	938.29
965.01	931.17
965.291	923.03
965.572	912.57
965.853	902.28
966.134	889.41
966.415	880.86
966.696	872.48
966.977	862.25
967.258	858.74
967.539	850.03
967.819	847.9
968.1	837.2
968.38	828.05
968.661	817.19
968.941	805.19
969.222	796.08
969.502	791.67
969.782	783.36
970.062	780.32
970.342	772.47
970.622	766.21
970.902	761.85
971.182	751.8
971.462	747.74
971.741	739.62
972.021	730.57
972.3	721.5
972.58	714.61
972.859	706.47
973.138	702.94
973.418	699.13
973.697	692.97
973.976	686.51
974.255	679.7
974.534	675.9
974.813	670.56
975.092	667.07
975.37	660.2
975.649	653.92
975.928	645.93
976.206	641.56
976.485	634.77
976.763	629.17
977.041	624.63
977.32	621.07
977.598	616.15
977.876	614.76
978.154	610.8
978.432	608.28
978.71	601
978.988	594.74
979.265	589.1
979.543	587.28
979.821	580.69
980.098	579.66
980.376	573.11
980.653	571.2
980.93	566.49
981.208	562.01
981.485	558.22
981.762	552.3
982.039	548.38
982.316	543.28
982.593	540.4
982.87	537.32
983.146	532.14
983.423	529.09
983.7	526.82
983.976	525.94
984.253	519.28
984.529	519.06
984.805	516.21
985.082	510.64
985.358	509.07
985.634	503.91
985.91	499.71
986.186	497.55
986.462	492.86
986.738	490.82
987.013	485.21
987.289	485.18
987.565	484.76
987.84	480.62
988.116	478.51
988.391	476.06
988.666	473
988.942	472.36
989.217	467.32
989.492	466.45
989.767	463.17
990.042	459.73
990.317	458.18
990.592	455.39
990.866	453.88
991.141	453.49
991.416	452.77
991.69	449
991.964	449.55
992.239	448.07
992.513	445.88
992.787	443.02
993.062	441.9
993.336	440.99
993.61	439.87
993.884	435.9
994.158	435.25
994.431	434.68
994.705	431.58
994.979	431.69
995.252	425.56
995.526	427.43
995.799	423.43
996.073	422.22
996.346	418.75
996.619	419.34
996.892	418.03
997.165	418.73
997.438	416.68
997.711	415.93
997.984	413.99
998.257	413.93
998.53	412.93
998.802	409.35
999.075	409.73
999.347	409.08
999.62	407.27
999.892	407.11
1000.165	405.67
1000.437	402.68
1000.709	402.37
1000.981	401.46
1001.253	402.24
1001.525	399.15
1001.797	400.13
1002.068	399.01
1002.34	397.36
1002.612	398.52
1002.883	397.24
1003.155	395.73
1003.426	393.35
1003.698	393.48
1003.969	391.41
1004.24	389.44
1004.511	391.3
1004.782	390.16
1005.053	388.5
1005.324	386.76
1005.595	387.53
1005.866	385.41
1006.136	385.15
1006.407	385.59
1006.678	384.88
1006.948	383.84
1007.218	383.47
1007.489	383.29
1007.759	381.95
1008.029	379.31
1008.299	381.31
1008.569	381.09
1008.839	380.84
1009.109	379.82
1009.379	378.29
1009.649	380.26
1009.918	377.47
1010.188	377.61
1010.458	376.34
1010.727	377.86
1010.996	376.35
1011.266	376.23
1011.535	376.18
1011.804	374.74
1012.073	374.33
1012.342	373.42
1012.611	374.42
1012.88	375.49
1013.149	371.78
1013.417	373.41
1013.686	370.75
1013.955	370.86
1014.223	371.91
1014.492	370.27
1014.76	370.29
1015.028	369.7
1015.296	370.26
1015.565	371.55
1015.833	367.24
1016.101	368.24
1016.368	368.62
1016.636	366.28
1016.904	367.57
1017.172	368.63
1017.439	368.41
1017.707	367.89
1017.974	369
1018.242	367.67
1018.509	367.11
1018.776	365.86
1019.044	367.79
1019.311	365.77
1019.578	368.32
1019.845	366.75
1020.112	369
1020.378	369
1020.645	369
