Data from 190729_Ar_25K_film_FLMS138901_13-46-42-088.txt Node
Date: Mon Jul 29 13:46:42 EDT 2019
User: pSAM
Spectrometer: FLMS13890
Trigger mode: 0
Integration Time (sec): 5.000000E-3
Scans to average: 1000
Electric dark correction enabled: true
Nonlinearity correction enabled: false
Boxcar width: 0
XAxis mode: Wavelengths
Number of Pixels in Spectrum: 2048
>>>>>Begin Spectral Data<<<<<
342.097	-61.84
342.483	-61.84
342.868	-61.84
343.254	-103.12
343.639	-104.45
344.025	-104.57
344.41	-99.49
344.796	-91.55
345.181	-81.26
345.567	-68.36
345.952	-53.42
346.337	-37.61
346.722	-18.94
347.107	-0.1
347.493	20.22
347.878	38.2
348.263	57.88
348.648	80.18
349.033	100.24
349.418	120.02
349.802	138.56
350.187	154.24
350.572	172.39
350.957	194.15
351.342	218.34
351.726	232.69
352.111	247.55
352.495	259.99
352.88	273.25
353.264	286.16
353.649	294.64
354.033	304.84
354.418	314.92
354.802	321.67
355.186	327.12
355.57	331.78
355.955	340.53
356.339	343.11
356.723	346.81
357.107	350.17
357.491	367.04
357.875	354.99
358.259	356.58
358.643	353.82
359.026	356.77
359.41	354.37
359.794	356.57
360.178	353.2
360.561	351.55
360.945	349.23
361.329	351.96
361.712	348.93
362.096	349.08
362.479	346.03
362.862	344.17
363.246	343.11
363.629	341.12
364.012	338.17
364.396	338.39
364.779	337.25
365.162	335.82
365.545	335.78
365.928	334.05
366.311	331.63
366.694	330.79
367.077	330.51
367.46	329.5
367.843	329.13
368.226	329.69
368.608	326.73
368.991	328.15
369.374	327.27
369.756	327.18
370.139	326.93
370.521	327.89
370.904	326.94
371.286	327.93
371.669	328.45
372.051	327.71
372.433	328.28
372.816	328.53
373.198	326.58
373.58	329.5
373.962	330.78
374.344	329.36
374.726	329.69
375.108	331.54
375.49	331.23
375.872	330.72
376.254	332.46
376.636	332.13
377.018	334.65
377.399	334.51
377.781	335.68
378.163	336.84
378.544	335.07
378.926	337.93
379.307	338.55
379.689	340.13
380.07	340.8
380.452	339.37
380.833	340.84
381.214	341.5
381.596	340.76
381.977	341.37
382.358	342.16
382.739	343.79
383.12	342.71
383.501	344.93
383.882	344.58
384.263	345.41
384.644	345.09
385.025	346.3
385.406	347.7
385.787	347.69
386.167	348.28
386.548	348.9
386.929	349.78
387.309	349.38
387.69	352.49
388.07	351.41
388.451	354.05
388.831	351.44
389.211	352.57
389.592	351.95
389.972	353.82
390.352	354.26
390.733	357
391.113	353.98
391.493	354.73
391.873	355.9
392.253	355.15
392.633	358.01
393.013	358.61
393.393	358.41
393.772	359.27
394.152	358.16
394.532	362.41
394.912	359.6
395.291	360.93
395.671	360.71
396.05	364.1
396.43	361.49
396.809	360.81
397.189	362.71
397.568	363.57
397.948	364.72
398.327	365.13
398.706	365.34
399.085	365.5
399.465	364.95
399.844	367.21
400.223	366.84
400.602	367.59
400.981	365.62
401.36	369.27
401.739	367.18
402.117	370.58
402.496	368.64
402.875	368.34
403.254	369.27
403.632	369.11
404.011	371.09
404.39	374.01
404.768	375.52
405.147	377.26
405.525	376.73
405.903	375.57
406.282	377.23
406.66	375.73
407.038	373.54
407.417	374.57
407.795	376.3
408.173	377.44
408.551	375.61
408.929	377.25
409.307	379.15
409.685	377.63
410.063	381.45
410.441	378.08
410.818	379.24
411.196	380.44
411.574	379.17
411.952	378.81
412.329	381.04
412.707	383.41
413.084	385.8
413.462	386.34
413.839	388.3
414.217	386.66
414.594	384.82
414.971	386.61
415.349	387.64
415.726	388.77
416.103	386.52
416.48	386.99
416.857	386.92
417.234	386.26
417.611	388.26
417.988	389.04
418.365	385.59
418.742	388.97
419.119	389.61
419.495	390.47
419.872	391.56
420.249	400.78
420.625	394.51
421.002	396.78
421.379	394.66
421.755	395.28
422.131	397.38
422.508	400.27
422.884	398.88
423.26	400.66
423.637	399.83
424.013	398.63
424.389	399.65
424.765	398.67
425.141	400.9
425.517	399.36
425.893	400.19
426.269	400.52
426.645	402.45
427.021	402.94
427.397	402.05
427.772	404.17
428.148	407.42
428.524	404.88
428.899	405.31
429.275	405.08
429.651	407.57
430.026	410.59
430.401	408.68
430.777	412.87
431.152	412.13
431.527	412.24
431.903	411.92
432.278	408.9
432.653	411.78
433.028	411.77
433.403	413
433.778	416.08
434.153	417.19
434.528	417.05
434.903	418.48
435.278	428.53
435.653	439.15
436.027	443.81
436.402	444.67
436.777	434.9
437.151	427.33
437.526	423.94
437.9	423.51
438.275	426.39
438.649	423.48
439.023	425.89
439.398	425.27
439.772	426.42
440.146	427.45
440.52	427.32
440.895	430.34
441.269	431.09
441.643	435.96
442.017	435.49
442.391	436.2
442.765	434.23
443.138	435
443.512	437.31
443.886	438.23
444.26	438.91
444.633	438.65
445.007	439.22
445.38	439.79
445.754	439.88
446.127	440.33
446.501	439.42
446.874	442.51
447.248	443.88
447.621	442.17
447.994	442.56
448.367	444.34
448.741	444.13
449.114	443.62
449.487	446.04
449.86	446.41
450.233	444.78
450.606	446.41
450.978	445.18
451.351	466.12
451.724	447.36
452.097	449.92
452.469	448.33
452.842	448.94
453.215	448.03
453.587	451.14
453.96	450.48
454.332	449.58
454.704	452.43
455.077	454.73
455.449	454.72
455.821	453.65
456.194	454.04
456.566	454.51
456.938	457.5
457.31	458.44
457.682	460.87
458.054	460.92
458.426	463.91
458.798	464.46
459.17	464.09
459.541	467.02
459.913	465.3
460.285	464.82
460.656	465.51
461.028	465.45
461.399	468.73
461.771	467.91
462.142	468.01
462.514	470.03
462.885	472.75
463.256	476.99
463.628	476.03
463.999	479.62
464.37	483
464.741	485.11
465.112	481.37
465.483	485.91
465.854	484.85
466.225	483.45
466.596	484.12
466.967	487.62
467.338	487.22
467.708	489.35
468.079	491.05
468.45	492.26
468.82	494.39
469.191	493.69
469.561	495.32
469.932	494.64
470.302	492.84
470.673	494
471.043	499.32
471.413	502.46
471.783	501.59
472.154	506.47
472.524	509.27
472.894	514.84
473.264	517.39
473.634	517.84
474.004	518.39
474.374	518.31
474.743	523.59
475.113	525.05
475.483	527.85
475.853	531.02
476.222	533.17
476.592	537.69
476.961	537.25
477.331	539.18
477.7	540.71
478.07	547.5
478.439	552.34
478.808	554.08
479.178	554.2
479.547	557.14
479.916	559.63
480.285	567.24
480.654	567.46
481.023	573.41
481.392	576.36
481.761	576.59
482.13	579.09
482.499	584.55
482.867	587.47
483.236	593.8
483.605	601.4
483.973	604.21
484.342	614.3
484.71	620.25
485.079	627.61
485.447	663.63
485.816	706.87
486.184	732.57
486.552	723.16
486.921	688.89
487.289	669.54
487.657	663.22
488.025	657.86
488.393	658.35
488.761	660.62
489.129	667.98
489.497	671.4
489.865	679.59
490.233	683.03
490.6	686.28
490.968	685.8
491.336	687.28
491.703	690.41
492.071	692.06
492.438	696.62
492.806	700.58
493.173	706.39
493.541	708.56
493.908	710.96
494.275	712.9
494.642	713.58
495.01	714.89
495.377	715.55
495.744	716.98
496.111	726.35
496.478	734.5
496.845	736.84
497.211	736.78
497.578	738.6
497.945	739.59
498.312	747.18
498.678	754.82
499.045	760.94
499.412	760.94
499.778	762.06
500.145	762.09
500.511	758.86
500.878	768.48
501.244	773.39
501.61	776.3
501.976	778.71
502.343	778.82
502.709	787.19
503.075	790.71
503.441	792.2
503.807	792.17
504.173	792.24
504.539	794.01
504.905	799.11
505.27	804.24
505.636	807.99
506.002	811.38
506.367	814.66
506.733	814.66
507.099	818.09
507.464	819.99
507.829	822.83
508.195	829.82
508.56	834.9
508.926	830.94
509.291	831.91
509.656	836.33
510.021	839.07
510.386	844.46
510.751	847.09
511.116	853.93
511.481	857.46
511.846	862.35
512.211	864.57
512.576	866.74
512.941	867.39
513.305	872.65
513.67	876.12
514.035	878.59
514.399	885
514.764	884.66
515.128	891.58
515.493	894.03
515.857	894.73
516.221	896.37
516.585	900.74
516.95	908.08
517.314	909.81
517.678	912.6
518.042	912.44
518.406	921.44
518.77	922.93
519.134	929.31
519.498	937.85
519.862	939.51
520.225	935.96
520.589	936.64
520.953	943.15
521.316	949.97
521.68	949.06
522.043	958.61
522.407	958.26
522.77	962.71
523.134	969.94
523.497	970.59
523.86	978.52
524.223	983.5
524.587	985.7
524.95	991.75
525.313	996.59
525.676	1000.97
526.039	1007.76
526.402	1008.15
526.765	1015.9
527.127	1021.57
527.49	1030.06
527.853	1029.04
528.215	1028.16
528.578	1038.4
528.941	1038.53
529.303	1048.99
529.666	1055.84
530.028	1060.14
530.39	1065.41
530.753	1068.01
531.115	1072.64
531.477	1081.19
531.839	1089.14
532.201	1091.78
532.564	1098.49
532.926	1103.89
533.287	1116.32
533.649	1120.88
534.011	1126.06
534.373	1137.39
534.735	1140.26
535.097	1142.37
535.458	1152.77
535.82	1162.45
536.181	1164.24
536.543	1166.31
536.904	1168.28
537.266	1180.79
537.627	1186.64
537.988	1197.52
538.35	1206.92
538.711	1219.35
539.072	1227.64
539.433	1237.19
539.794	1247.69
540.155	1257.85
540.516	1267.81
540.877	1276.21
541.238	1295.73
541.599	1320.6
541.959	1349.68
542.32	1386.18
542.681	1412.92
543.041	1431.88
543.402	1437.53
543.762	1447.27
544.123	1450.94
544.483	1454.02
544.844	1454.16
545.204	1451.31
545.564	1459.04
545.924	1477.25
546.284	1481.12
546.644	1475.58
547.004	1449.42
547.364	1424.24
547.724	1415.47
548.084	1412
548.444	1419.88
548.804	1420.01
549.164	1426.8
549.523	1431.03
549.883	1432.24
550.242	1439.68
550.602	1447.41
550.961	1448.78
551.321	1446.09
551.68	1449.17
552.04	1457.99
552.399	1472.15
552.758	1473.35
553.117	1475.22
553.476	1484.38
553.835	1486.71
554.194	1489.89
554.553	1486.9
554.912	1489.48
555.271	1495.35
555.63	1501.28
555.989	1508.27
556.347	1509.72
556.706	1513.69
557.065	1520
557.423	1524.49
557.782	1534.42
558.14	1536.95
558.499	1548.66
558.857	1549.07
559.215	1551.92
559.573	1560.96
559.932	1567.96
560.29	1581.28
560.648	1591.68
561.006	1595.97
561.364	1600.12
561.722	1609.74
562.08	1614.75
562.438	1611.5
562.795	1623.29
563.153	1630.16
563.511	1635.35
563.868	1649.56
564.226	1656.12
564.583	1662.86
564.941	1665.38
565.298	1685.48
565.656	1686.7
566.013	1690.25
566.37	1701.51
566.727	1708.12
567.085	1728.19
567.442	1747.22
567.799	1760.48
568.156	1766.46
568.513	1776.25
568.87	1799.08
569.226	1827.52
569.583	1871.1
569.94	1887.77
570.297	1904.59
570.653	1900.48
571.01	1907.73
571.366	1942.11
571.723	1963.46
572.079	1965.12
572.436	1968.6
572.792	1966.17
573.148	1991.79
573.505	2018.23
573.861	2066.45
574.217	2090.15
574.573	2095.67
574.929	2086.86
575.285	2082.74
575.641	2099.02
575.997	2121.52
576.352	2143.94
576.708	2151.24
577.064	2177.55
577.42	2219.41
577.775	2260.71
578.131	2277.64
578.486	2278.71
578.842	2244.23
579.197	2240.7
579.552	2264.75
579.908	2301.94
580.263	2346.97
580.618	2341.31
580.973	2349.38
581.328	2423.27
581.683	2512.41
582.038	2576.94
582.393	2521.55
582.748	2438.52
583.103	2357.51
583.458	2307.89
583.812	2310.15
584.167	2355.7
584.522	2395.12
584.876	2447.31
585.231	2464.81
585.585	2469.32
585.939	2447.72
586.294	2424.57
586.648	2402.01
587.002	2404.86
587.356	2435.53
587.711	2504.29
588.065	2521.41
588.419	2544.61
588.773	2533.84
589.127	2486.89
589.48	2459.77
589.834	2420.23
590.188	2418.54
590.542	2436.36
590.895	2416.49
591.249	2433.69
591.603	2428.6
591.956	2431.98
592.309	2450.51
592.663	2479.33
593.016	2542.36
593.369	2584.83
593.723	2576.93
594.076	2568.36
594.429	2560.1
594.782	2579.17
595.135	2614.99
595.488	2627.18
595.841	2618.49
596.194	2575.14
596.547	2562.83
596.899	2563.54
597.252	2569.66
597.605	2583.46
597.957	2584.4
598.31	2597.22
598.662	2618.57
599.015	2631.89
599.367	2652.21
599.719	2656.33
600.072	2663.5
600.424	2680.03
600.776	2711.59
601.128	2717.25
601.48	2716.21
601.832	2733.82
602.184	2735.83
602.536	2749.22
602.888	2763.8
603.24	2803.92
603.592	2831.56
603.943	2820.48
604.295	2802.43
604.646	2781.31
604.998	2783.62
605.349	2791.44
605.701	2794.47
606.052	2814.61
606.404	2825.03
606.755	2829.69
607.106	2836.12
607.457	2833.65
607.808	2832.68
608.159	2829.07
608.51	2832.73
608.861	2847.56
609.212	2844.15
609.563	2878.13
609.914	2913.95
610.265	2925
610.615	2977.13
610.966	3034.04
611.316	3107.31
611.667	3175.92
612.017	3213.32
612.368	3162.33
612.718	3158.17
613.068	3116.33
613.419	3112.53
613.769	3091.02
614.119	3089
614.469	3109.87
614.819	3091.07
615.169	3077.51
615.519	3090.55
615.869	3078.05
616.219	3079.17
616.568	3050.59
616.918	3033.23
617.268	3054.96
617.617	3051.26
617.967	3077.2
618.316	3069.34
618.666	3065.96
619.015	3069.67
619.364	3081.77
619.714	3120.42
620.063	3137.98
620.412	3146.49
620.761	3158.41
621.11	3150.06
621.459	3124.71
621.808	3125.98
622.157	3170.07
622.506	3184.3
622.855	3209.8
623.203	3234.02
623.552	3240.23
623.901	3249.47
624.249	3240.57
624.598	3257.29
624.946	3241.89
625.295	3229.56
625.643	3239.53
625.991	3256.19
626.34	3254.95
626.688	3255.93
627.036	3266.44
627.384	3265.63
627.732	3291.48
628.08	3312.87
628.428	3303.48
628.776	3303.93
629.124	3321.29
629.471	3341.18
629.819	3372.33
630.167	3377.14
630.514	3377.94
630.862	3356.6
631.209	3381.13
631.557	3393.47
631.904	3406.14
632.251	3413.58
632.599	3391.7
632.946	3391.67
633.293	3412.1
633.64	3410.36
633.987	3429.95
634.334	3434.98
634.681	3441.67
635.028	3472.73
635.375	3486.55
635.722	3505.21
636.068	3515.88
636.415	3521.85
636.762	3520.93
637.108	3534.47
637.455	3537.01
637.801	3545.61
638.147	3565.67
638.494	3569.25
638.84	3594.65
639.186	3577.11
639.532	3585.75
639.878	3612.08
640.225	3615.93
640.571	3634.66
640.916	3634.2
641.262	3646.26
641.608	3635.03
641.954	3641.64
642.3	3646.61
642.645	3646.14
642.991	3668.6
643.337	3686.53
643.682	3717.1
644.028	3739.57
644.373	3750.89
644.718	3760.59
645.064	3753.63
645.409	3760.65
645.754	3773.21
646.099	3790.96
646.444	3781.69
646.789	3792.28
647.134	3792.66
647.479	3828.51
647.824	3827.91
648.169	3853.99
648.513	3872.65
648.858	3882.75
649.203	3897.08
649.547	3894.82
649.892	3903.19
650.236	3906.34
650.581	3915.71
650.925	3931.72
651.269	3928.17
651.613	3943.24
651.958	3972.18
652.302	4009.77
652.646	3987.49
652.99	3990.75
653.334	4019.76
653.678	4000.58
654.022	4001.1
654.365	4017.34
654.709	4015.36
655.053	4027.47
655.396	4104.2
655.74	5057.61
656.083	7250.93
656.427	8881.47
656.77	9399.67
657.114	7635.17
657.457	5746.49
657.8	4773.32
658.143	4362.93
658.486	4213.61
658.83	4185.18
659.173	4157
659.516	4158.99
659.858	4162.32
660.201	4158.68
660.544	4167.47
660.887	4179.38
661.229	4177.3
661.572	4163.41
661.915	4180.73
662.257	4173.32
662.6	4200.86
662.942	4218.65
663.284	4213.16
663.627	4247.67
663.969	4238.75
664.311	4244.49
664.653	4244.72
664.995	4243.32
665.337	4273.57
665.679	4277.92
666.021	4311.17
666.363	4295.35
666.705	4323.47
667.046	4294.92
667.388	4285.99
667.73	4286.81
668.071	4308.78
668.413	4327.78
668.754	4323.75
669.096	4289.36
669.437	4316.63
669.778	4319.51
670.119	4317.31
670.461	4292.43
670.802	4317.95
671.143	4321.56
671.484	4334.54
671.825	4365.87
672.165	4385.03
672.506	4398.35
672.847	4413.05
673.188	4427.59
673.528	4405.97
673.869	4389.32
674.21	4425.44
674.55	4421.91
674.89	4419.8
675.231	4436.78
675.571	4435.91
675.911	4454.08
676.252	4462.95
676.592	4481.23
676.932	4447.08
677.272	4435.85
677.612	4463.93
677.952	4469.89
678.292	4486.6
678.631	4496.09
678.971	4493.49
679.311	4513.61
679.651	4524.14
679.99	4547.22
680.33	4545.76
680.669	4567.69
681.009	4565.63
681.348	4575.95
681.687	4563.01
682.026	4556.36
682.366	4543.36
682.705	4581.17
683.044	4567.6
683.383	4572.37
683.722	4605.06
684.061	4580.14
684.4	4613.13
684.738	4637.24
685.077	4681.8
685.416	4658.3
685.754	4670.91
686.093	4676.49
686.431	4689.89
686.77	4643.96
687.108	4666.03
687.447	4641.17
687.785	4672.57
688.123	4668.84
688.461	4675.61
688.799	4648.82
689.137	4660.31
689.475	4660.3
689.813	4652.91
690.151	4677.28
690.489	4670.41
690.827	4687.69
691.164	4733.29
691.502	4746.94
691.84	4750.62
692.177	4755.67
692.515	4772.46
692.852	4750.89
693.189	4786.24
693.527	4798.48
693.864	4825.35
694.201	4817.68
694.538	4798.02
694.875	4766.52
695.212	4749.23
695.549	4794.55
695.886	4803.38
696.223	4808.35
696.56	4811.34
696.897	4788.11
697.233	4802.73
697.57	4842.25
697.906	4890.15
698.243	4884.03
698.579	4863.5
698.916	4881.02
699.252	4830.81
699.588	4834.8
699.924	4864.17
700.261	4854.05
700.597	4868.59
700.933	4863.17
701.269	4846.48
701.605	4871.41
701.941	4863.25
702.276	4871.27
702.612	4874.25
702.948	4899.81
703.283	4915.92
703.619	4909.33
703.954	4920.69
704.29	4933.87
704.625	4957.6
704.961	4941.45
705.296	4967.55
705.631	4962.69
705.966	4942.8
706.301	4964.5
706.637	4978.39
706.972	5020.06
707.306	4999.62
707.641	5025.24
707.976	5028.2
708.311	5048.23
708.646	5067.96
708.98	5029.95
709.315	5057.41
709.649	5077.86
709.984	5069.14
710.318	5017.75
710.653	5012.62
710.987	4996
711.321	5015.97
711.655	4984.79
711.989	4945.57
712.324	4955.28
712.658	4998.73
712.992	5006.09
713.325	5019.14
713.659	5027.6
713.993	5020.74
714.327	5034.85
714.66	5050.2
714.994	5040.93
715.328	5049.49
715.661	5095.72
715.994	5114.25
716.328	5048.46
716.661	5052.16
716.994	5096.08
717.328	5045.68
717.661	5051.36
717.994	5050.81
718.327	5066.68
718.66	5044.52
718.993	5065.03
719.325	5083.54
719.658	5064.22
719.991	5078.39
720.324	5096.93
720.656	5063.01
720.989	5055.12
721.321	5039.44
721.654	5054.92
721.986	5063.63
722.318	5083.39
722.651	5078.95
722.983	5053.65
723.315	5080.55
723.647	5072.79
723.979	5096.57
724.311	5116.05
724.643	5081.85
724.975	5089.77
725.307	5077.74
725.638	5108.24
725.97	5113.89
726.302	5177.03
726.633	5147.69
726.965	5168.23
727.296	5155.78
727.628	5117.45
727.959	5094.08
728.29	5109.45
728.621	5101.94
728.952	5111.2
729.284	5081.93
729.615	5105.07
729.945	5099.57
730.276	5125.76
730.607	5138.02
730.938	5075.07
731.269	5082.54
731.599	5102.87
731.93	5125.12
732.261	5091.03
732.591	5103.96
732.922	5101.75
733.252	5085.1
733.582	5071.15
733.912	5095.85
734.243	5090.08
734.573	5090.18
734.903	5109.94
735.233	5080.28
735.563	5072.04
735.893	5065.05
736.223	5052.39
736.552	5085.73
736.882	5083.67
737.212	5079.78
737.541	5074.03
737.871	5053.34
738.2	5027.1
738.53	4995.08
738.859	4977.3
739.188	4951.63
739.518	4994.49
739.847	5052.75
740.176	5058.42
740.505	5059.63
740.834	5028.71
741.163	5005.95
741.492	4952.41
741.821	4953.97
742.15	4936.48
742.478	4958.51
742.807	4952.35
743.136	4965.02
743.464	4930.52
743.793	4887.28
744.121	4869.38
744.449	4875.5
744.778	4891.79
745.106	4915.67
745.434	4915.34
745.762	4857.1
746.09	4817.06
746.418	4835.42
746.746	4862.2
747.074	4869.32
747.402	4874.91
747.73	4853.87
748.057	4840.93
748.385	4822.62
748.712	4834.18
749.04	4786.3
749.367	4795.39
749.695	4773.2
750.022	4821.2
750.349	4818.1
750.677	4810.03
751.004	4804.51
751.331	4781.38
751.658	4769.2
751.985	4733.12
752.312	4682.82
752.639	4702.85
752.966	4719.95
753.292	4704.45
753.619	4747.12
753.946	4743.04
754.272	4707.27
754.599	4712.77
754.925	4719.51
755.251	4693.94
755.578	4675
755.904	4645.54
756.23	4614
756.556	4623.04
756.882	4669.7
757.208	4657.41
757.534	4650.63
757.86	4647.96
758.186	4664.32
758.512	4659.42
758.838	4712.63
759.163	4706.04
759.489	4693.91
759.814	4619.89
760.14	4598.72
760.465	4593.95
760.791	4556.32
761.116	4548.69
761.441	4566.56
761.766	4588.01
762.092	4522.09
762.417	4487.22
762.742	4477.29
763.066	4413.46
763.391	4429.36
763.716	4437.08
764.041	4434.53
764.366	4419.21
764.69	4386.62
765.015	4420.09
765.339	4421.59
765.664	4449
765.988	4464.49
766.312	4428.9
766.637	4401.7
766.961	4390.76
767.285	4392.58
767.609	4361.43
767.933	4308.44
768.257	4301.46
768.581	4274.46
768.905	4326.53
769.229	4349.75
769.552	4375.31
769.876	4374.91
770.2	4347.11
770.523	4322.65
770.847	4298.88
771.17	4272.5
771.493	4293.6
771.817	4306.56
772.14	4261.13
772.463	4228.1
772.786	4223.95
773.109	4212.11
773.432	4248.37
773.755	4208.94
774.078	4175.13
774.401	4145.69
774.724	4138.91
775.046	4156.47
775.369	4164.8
775.692	4153.43
776.014	4115.41
776.336	4070.67
776.659	4072.05
776.981	4064.93
777.303	4061.23
777.626	4058.84
777.948	4040.39
778.27	4027.26
778.592	4043.57
778.914	4048.28
779.236	4043.18
779.557	4039.93
779.879	4034.23
780.201	4049.67
780.523	4070.68
780.844	4053.44
781.166	4074.47
781.487	4089.75
781.809	4077.97
782.13	4094.84
782.451	4089.92
782.772	4100.2
783.094	4123.09
783.415	4165.15
783.736	4186.92
784.057	4201.07
784.378	4181.62
784.698	4155.94
785.019	4171.05
785.34	4072.63
785.661	4097.84
785.981	4120.13
786.302	4131.94
786.622	4143.77
786.943	4187.68
787.263	4143.28
787.583	4135.77
787.903	4149.89
788.224	4146.02
788.544	4186.73
788.864	4172.99
789.184	4227.06
789.504	4235.78
789.824	4231.42
790.143	4224.45
790.463	4193.9
790.783	4184.89
791.102	4209.97
791.422	4237.29
791.741	4216.99
792.061	4197.95
792.38	4245.57
792.699	4210.16
793.019	4218.87
793.338	4199.03
793.657	4179.12
793.976	4205.98
794.295	4220.5
794.614	4222.7
794.933	4224.13
795.252	4210.09
795.57	4185.5
795.889	4203.83
796.208	4206.16
796.526	4183.12
796.845	4181.79
797.163	4140.6
797.482	4132.15
797.8	4127.62
798.118	4128.2
798.436	4155.87
798.754	4171.05
799.073	4180.8
799.391	4171.36
799.708	4148.6
800.026	4135.09
800.344	4156.56
800.662	4164.35
800.98	4151.79
801.297	4144.68
801.615	4150.13
801.932	4117.16
802.25	4096.8
802.567	4100.53
802.884	4080
803.202	4055.77
803.519	4019.02
803.836	4022.22
804.153	4007.16
804.47	4047.58
804.787	4043.1
805.104	4020.09
805.421	4032.07
805.737	3987.75
806.054	3940.17
806.371	3976.2
806.687	4019.49
807.004	4018.9
807.32	4022.17
807.637	3984.8
807.953	3968.96
808.269	3942.62
808.585	3961.62
808.902	3940.29
809.218	3935.24
809.534	3942.1
809.85	3915.07
810.165	3891.73
810.481	3912.2
810.797	3890.68
811.113	3880.33
811.428	3870.58
811.744	3882.82
812.059	3865.49
812.375	3836.03
812.69	3837.03
813.006	3825.71
813.321	3820.04
813.636	3793.35
813.951	3771.89
814.266	3767.67
814.581	3765.93
814.896	3769.05
815.211	3748.01
815.526	3757.12
815.841	3708.17
816.155	3735.41
816.47	3761.16
816.784	3767.99
817.099	3730.7
817.413	3695.67
817.728	3698.07
818.042	3705.14
818.356	3730.78
818.67	3715.02
818.985	3693.72
819.299	3640.56
819.613	3662.79
819.926	3630.26
820.24	3630.96
820.554	3635.43
820.868	3653.43
821.182	3610.14
821.495	3629.31
821.809	3599.03
822.122	3555
822.436	3525.91
822.749	3538.04
823.062	3562.52
823.376	3568.03
823.689	3545.39
824.002	3547.35
824.315	3530.08
824.628	3519.78
824.941	3530.77
825.254	3500.11
825.566	3501.2
825.879	3523.94
826.192	3504.76
826.504	3468.14
826.817	3449.65
827.129	3470.6
827.442	3475.12
827.754	3476.65
828.066	3481.57
828.379	3450.97
828.691	3421.29
829.003	3392.66
829.315	3404.54
829.627	3429.28
829.939	3408.64
830.251	3409.22
830.562	3385.09
830.874	3367.28
831.186	3320.59
831.497	3328.26
831.809	3337.5
832.12	3333.28
832.432	3302.91
832.743	3301.31
833.054	3300.25
833.365	3275.2
833.676	3282.58
833.988	3293.92
834.299	3288.8
834.61	3262.27
834.92	3241.12
835.231	3238.53
835.542	3231.34
835.853	3222.51
836.163	3246.39
836.474	3236.83
836.784	3218.85
837.095	3191.03
837.405	3161.38
837.715	3161.25
838.026	3172.21
838.336	3175.19
838.646	3175.84
838.956	3129.03
839.266	3090.01
839.576	3051.52
839.886	3054.76
840.195	3077.61
840.505	3070.3
840.815	3064.68
841.124	3047.86
841.434	3033.37
841.743	3006.41
842.053	2978.76
842.362	2983.82
842.671	3009.57
842.981	3023.7
843.29	2989.54
843.599	2978.24
843.908	2951.83
844.217	2938.18
844.526	2956.2
844.835	2953.03
845.143	2950.65
845.452	2931.7
845.761	2920.3
846.069	2876.59
846.378	2847.5
846.686	2812.79
846.995	2823.27
847.303	2831.18
847.611	2846.6
847.919	2830.94
848.227	2813.3
848.535	2796.99
848.843	2797.44
849.151	2777.16
849.459	2802.89
849.767	2811.14
850.075	2818.43
850.382	2787.48
850.69	2771.88
850.998	2741.6
851.305	2722.14
851.612	2735.09
851.92	2744.37
852.227	2750.31
852.534	2740.85
852.841	2719.65
853.148	2711.62
853.455	2731.98
853.762	2719.68
854.069	2711.94
854.376	2701.23
854.683	2676.01
854.99	2651.49
855.296	2655.43
855.603	2634.52
855.909	2611.4
856.216	2600.28
856.522	2608.06
856.828	2607.74
857.135	2613.47
857.441	2606.68
857.747	2590.06
858.053	2582.32
858.359	2540.29
858.665	2553.36
858.971	2548.29
859.276	2521.99
859.582	2491.55
859.888	2481.39
860.193	2475.2
860.499	2449.2
860.804	2437.63
861.11	2429.73
861.415	2449.29
861.72	2461.43
862.026	2457.4
862.331	2444.09
862.636	2415.37
862.941	2385.01
863.246	2372.51
863.551	2377.95
863.855	2388.67
864.16	2392
864.465	2366.93
864.769	2367.98
865.074	2349.35
865.378	2322.19
865.683	2292.69
865.987	2295.28
866.291	2269.61
866.596	2277.34
866.9	2264.87
867.204	2264.62
867.508	2260.37
867.812	2254.87
868.116	2250.14
868.42	2249.55
868.723	2238.07
869.027	2230.79
869.331	2212.83
869.634	2195.86
869.938	2153.14
870.241	2146.41
870.544	2153.39
870.848	2157.08
871.151	2161.34
871.454	2158.49
871.757	2151.66
872.06	2133.26
872.363	2116.98
872.666	2100.65
872.969	2084.09
873.272	2092.06
873.574	2099.03
873.877	2114.99
874.18	2109.57
874.482	2079.66
874.785	2055.23
875.087	2026.82
875.389	2026.21
875.692	2016.75
875.994	2024.55
876.296	2026.77
876.598	2039.55
876.9	2017.21
877.202	1986.49
877.504	1962.31
877.805	1955.34
878.107	1954.39
878.409	1948.39
878.71	1975.95
879.012	1985
879.313	1954.93
879.615	1956.43
879.916	1929.31
880.217	1901.41
880.518	1900.09
880.82	1913.62
881.121	1904
881.422	1902.53
881.723	1894.48
882.023	1875.26
882.324	1850.89
882.625	1836.82
882.926	1841.31
883.226	1853.61
883.527	1837.26
883.827	1838.24
884.128	1848.39
884.428	1853.31
884.728	1830.83
885.028	1817.59
885.328	1790.97
885.629	1766.53
885.929	1764.23
886.228	1774.06
886.528	1759.06
886.828	1743.32
887.128	1740.46
887.427	1725.01
887.727	1707.23
888.027	1698.38
888.326	1690.19
888.625	1694.79
888.925	1688.2
889.224	1698.71
889.523	1675.25
889.822	1660.53
890.121	1654.92
890.42	1649.33
890.719	1641.88
891.018	1620.3
891.317	1608.12
891.616	1612.26
891.914	1610.67
892.213	1609.06
892.512	1598.71
892.81	1597.81
893.108	1580.23
893.407	1568.84
893.705	1582.68
894.003	1591.8
894.301	1589.81
894.599	1589.79
894.897	1585.38
895.195	1576.22
895.493	1563.95
895.791	1559.57
896.089	1560.87
896.386	1559.77
896.684	1575.16
896.981	1579.15
897.279	1574.9
897.576	1576.85
897.874	1568.69
898.171	1576.49
898.468	1569.61
898.765	1573.91
899.062	1584.86
899.359	1588.97
899.656	1581.95
899.953	1577.72
900.25	1586.38
900.547	1575.07
900.843	1558.88
901.14	1551.72
901.436	1561.29
901.733	1575.84
902.029	1576.68
902.325	1572.29
902.622	1560.71
902.918	1574.22
903.214	1571.36
903.51	1545.81
903.806	1537.9
904.102	1531.59
904.398	1536.38
904.694	1557.35
904.989	1581.09
905.285	1576.37
905.581	1559.79
905.876	1557.67
906.171	1545.66
906.467	1538.32
906.762	1544.34
907.057	1549
907.353	1562.06
907.648	1563.95
907.943	1555.37
908.238	1546.16
908.533	1525.25
908.827	1515.82
909.122	1509.49
909.417	1512.87
909.711	1520.69
910.006	1517
910.301	1502.75
910.595	1505.61
910.889	1517.04
911.184	1499.8
911.478	1489.61
911.772	1485.86
912.066	1480.18
912.36	1474.49
912.654	1472.04
912.948	1476.27
913.242	1483.05
913.536	1471.65
913.829	1469.36
914.123	1458.57
914.416	1440.72
914.71	1437.98
915.003	1439.67
915.297	1428.42
915.59	1421.52
915.883	1424.35
916.176	1430.73
916.469	1431.38
916.762	1419.55
917.055	1399.22
917.348	1388.32
917.641	1389.58
917.934	1381.08
918.226	1383.8
918.519	1383.22
918.811	1380.4
919.104	1382.11
919.396	1369.36
919.689	1355.63
919.981	1335.55
920.273	1329.79
920.565	1325.01
920.857	1315.73
921.149	1317.17
921.441	1323.97
921.733	1323.65
922.025	1319.95
922.316	1313.14
922.608	1303.45
922.9	1289.77
923.191	1286.26
923.483	1282.92
923.774	1267.74
924.065	1259.38
924.357	1257.46
924.648	1244.71
924.939	1239.49
925.23	1234.97
925.521	1233.91
925.812	1225.23
926.102	1214.26
926.393	1208.3
926.684	1204.93
926.975	1195.45
927.265	1191.45
927.556	1193.13
927.846	1179.28
928.136	1169.03
928.427	1155.92
928.717	1146.51
929.007	1139.12
929.297	1132.63
929.587	1127.92
929.877	1132.29
930.167	1138.51
930.457	1137.37
930.746	1124.12
931.036	1118.04
931.325	1103.51
931.615	1098.83
931.904	1099.01
932.194	1092.39
932.483	1086.61
932.772	1091.35
933.062	1087.64
933.351	1086.75
933.64	1077.56
933.929	1077.49
934.218	1067.44
934.506	1060.49
934.795	1054.63
935.084	1047.18
935.372	1042.67
935.661	1033.97
935.949	1025.39
936.238	1025.5
936.526	1016.97
936.815	1013.2
937.103	1007.96
937.391	1004.11
937.679	992.34
937.967	987.49
938.255	985.28
938.543	984.48
938.831	985.22
939.118	983.8
939.406	984.32
939.693	974.14
939.981	966.07
940.268	960.71
940.556	949.35
940.843	940.15
941.13	933.88
941.418	933.55
941.705	930.59
941.992	924.07
942.279	922.59
942.566	912.02
942.852	906.43
943.139	899.29
943.426	891.13
943.712	886.69
943.999	883.98
944.285	885.72
944.572	884.46
944.858	883.46
945.144	882.7
945.431	875.62
945.717	873.17
946.003	870.32
946.289	860.13
946.575	850.34
946.861	839.45
947.146	832.8
947.432	831.12
947.718	823.83
948.003	823.81
948.289	823.02
948.574	821
948.86	815.35
949.145	814.36
949.43	808.65
949.715	802.23
950	794.53
950.285	791.27
950.57	789.58
950.855	785.29
951.14	781.13
951.425	778.72
951.709	774.74
951.994	768.24
952.278	768.35
952.563	766.56
952.847	758.5
953.132	753.5
953.416	752.34
953.7	747.38
953.984	748.45
954.268	747.41
954.552	746
954.836	745.62
955.12	740.95
955.404	738.45
955.687	728.36
955.971	722.02
956.254	716.35
956.538	712.41
956.821	711.63
957.105	709.43
957.388	708.72
957.671	702.55
957.954	701.6
958.237	697
958.52	692.72
958.803	689.56
959.086	684.49
959.369	678.62
959.652	673.34
959.934	666.16
960.217	661.03
960.499	661.47
960.782	655.85
961.064	653.32
961.346	652.35
961.629	643.76
961.911	640.69
962.193	637.01
962.475	633.08
962.757	627.06
963.039	624.36
963.32	623.86
963.602	623.5
963.884	623.65
964.165	622.28
964.447	624.13
964.728	619.22
965.01	617
965.291	611.42
965.572	605.82
965.853	600.16
966.134	596.88
966.415	598.21
966.696	595.45
966.977	595.29
967.258	594.95
967.539	590.29
967.819	587.67
968.1	584.89
968.38	579.99
968.661	576.6
968.941	572.36
969.222	571.81
969.502	564.99
969.782	565.92
970.062	566.83
970.342	564.23
970.622	562.98
970.902	558.88
971.182	555.94
971.462	554.89
971.741	551.65
972.021	549.67
972.3	545.12
972.58	539.49
972.859	536.4
973.138	538.89
973.418	537.01
973.697	536.93
973.976	535.66
974.255	532.68
974.534	527.9
974.813	526.61
975.092	521.74
975.37	518.02
975.649	519.12
975.928	518.05
976.206	516.95
976.485	513.73
976.763	513.92
977.041	511.36
977.32	507.76
977.598	503.04
977.876	503.27
978.154	502.12
978.432	499.16
978.71	493.41
978.988	492.42
979.265	490.83
979.543	489.08
979.821	488.8
980.098	485.05
980.376	482.16
980.653	480.81
980.93	478.62
981.208	477.38
981.485	476.01
981.762	477.21
982.039	472.54
982.316	469.67
982.593	468.48
982.87	467.01
983.146	464.26
983.423	463.49
983.7	464.04
983.976	461.19
984.253	460.74
984.529	459.67
984.805	457.64
985.082	456.13
985.358	450.59
985.634	452.2
985.91	449.72
986.186	448.41
986.462	447.74
986.738	446.5
987.013	444.11
987.289	442.8
987.565	442.49
987.84	441.52
988.116	440.35
988.391	435.89
988.666	436.78
988.942	434.03
989.217	433.44
989.492	430.6
989.767	430.57
990.042	430.15
990.317	427.3
990.592	425.44
990.866	424.89
991.141	424.31
991.416	424.26
991.69	421.57
991.964	419.81
992.239	418.22
992.513	416.24
992.787	417.16
993.062	415.21
993.336	413.81
993.61	411.89
993.884	411.31
994.158	411.03
994.431	410.89
994.705	409.9
994.979	406.93
995.252	405.76
995.526	402.1
995.799	403.11
996.073	402.67
996.346	400.66
996.619	400.18
996.892	400.44
997.165	398.33
997.438	399.17
997.711	398.05
997.984	395.54
998.257	397.67
998.53	394.43
998.802	392.35
999.075	393.21
999.347	390.91
999.62	389.75
999.892	387.82
1000.165	388.29
1000.437	387.68
1000.709	389.01
1000.981	388.08
1001.253	385.54
1001.525	387.26
1001.797	386.58
1002.068	383.51
1002.34	382.58
1002.612	383.44
1002.883	380.12
1003.155	379.57
1003.426	378.84
1003.698	378.31
1003.969	377.65
1004.24	377.58
1004.511	377.14
1004.782	377.63
1005.053	378.11
1005.324	374.28
1005.595	374.96
1005.866	374.38
1006.136	374.7
1006.407	372.46
1006.678	373.07
1006.948	374.05
1007.218	368.96
1007.489	368.93
1007.759	368.79
1008.029	369.21
1008.299	368.7
1008.569	367.88
1008.839	367.63
1009.109	368.55
1009.379	365.39
1009.649	368.38
1009.918	366.71
1010.188	365.25
1010.458	365.25
1010.727	364.1
1010.996	362.92
1011.266	363.49
1011.535	362.84
1011.804	362.51
1012.073	361.54
1012.342	360.29
1012.611	360.81
1012.88	360.12
1013.149	360.39
1013.417	360.99
1013.686	360.25
1013.955	358.1
1014.223	358.75
1014.492	358.91
1014.76	356.19
1015.028	359.89
1015.296	358.25
1015.565	357.69
1015.833	356.35
1016.101	357.22
1016.368	356.49
1016.636	354.13
1016.904	356.29
1017.172	356.17
1017.439	356.04
1017.707	354.51
1017.974	354.49
1018.242	353.51
1018.509	354.75
1018.776	352.66
1019.044	353.15
1019.311	353
1019.578	352.96
1019.845	351.91
1020.112	352.83
1020.378	352.83
1020.645	352.83
