Data from 190612_Ar_26K_film_FLMS138901_13-23-08-261.txt Node
Date: Wed Jun 12 13:23:08 EDT 2019
User: pSAM
Spectrometer: FLMS13890
Trigger mode: 0
Integration Time (sec): 5.000000E-3
Scans to average: 1000
Electric dark correction enabled: true
Nonlinearity correction enabled: false
Boxcar width: 0
XAxis mode: Wavelengths
Number of Pixels in Spectrum: 2048
>>>>>Begin Spectral Data<<<<<
342.097	-59.23
342.483	-59.23
342.868	-59.23
343.254	-101.62
343.639	-103.02
344.025	-103.02
344.41	-99.59
344.796	-90.84
345.181	-80.11
345.567	-67.65
345.952	-54.78
346.337	-36.6
346.722	-18.08
347.107	0.35
347.493	20.57
347.878	40.08
348.263	57.87
348.648	78.99
349.033	99.79
349.418	117.33
349.802	135.69
350.187	154.77
350.572	170.97
350.957	210.06
351.342	279.29
351.726	299.81
352.111	313.65
352.495	329.79
352.88	339.98
353.264	353.32
353.649	364.87
354.033	376.48
354.418	384.54
354.802	393.88
355.186	403.48
355.57	407.54
355.955	417
356.339	418.56
356.723	424.21
357.107	426
357.491	444.15
357.875	432.66
358.259	436.57
358.643	436.41
359.026	438.8
359.41	437.12
359.794	438.37
360.178	440.74
360.561	438.69
360.945	438.17
361.329	437.4
361.712	438.38
362.096	437.17
362.479	435.22
362.862	436.14
363.246	436.17
363.629	433.41
364.012	433.13
364.396	430.28
364.779	431.03
365.162	429.92
365.545	431.85
365.928	429.71
366.311	429.92
366.694	430.74
367.077	431.05
367.46	432.76
367.843	430.56
368.226	431.9
368.608	433.16
368.991	431.85
369.374	431.75
369.756	433.56
370.139	432.82
370.521	432.39
370.904	434.3
371.286	433.49
371.669	436.26
372.051	435.59
372.433	438.98
372.816	439.55
373.198	438.58
373.58	442.21
373.962	443.07
374.344	442.82
374.726	445.61
375.108	446.58
375.49	448.87
375.872	449.92
376.254	449.4
376.636	450.14
377.018	452.75
377.399	452.21
377.781	454.14
378.163	455.45
378.544	453.75
378.926	458.49
379.307	463.11
379.689	464.69
380.07	467.75
380.452	470.61
380.833	473.86
381.214	472.74
381.596	474.33
381.977	477.59
382.358	481.85
382.739	485.84
383.12	485.37
383.501	485.62
383.882	487.96
384.263	487.99
384.644	489.31
385.025	490.74
385.406	492.27
385.787	492.45
386.167	497.57
386.548	501.93
386.929	502.91
387.309	507.52
387.69	511.21
388.07	516.69
388.451	517.57
388.831	519.47
389.211	516.26
389.592	514.67
389.972	513.21
390.352	517.86
390.733	516.15
391.113	518.72
391.493	522.42
391.873	527.3
392.253	531.64
392.633	539.57
393.013	540.41
393.393	541.3
393.772	541.22
394.152	545.4
394.532	545.98
394.912	548.75
395.291	546.41
395.671	548
396.05	545.33
396.43	548.56
396.809	550.78
397.189	554.19
397.568	558.85
397.948	563.41
398.327	568.46
398.706	571.97
399.085	573.02
399.465	570.72
399.844	570.07
400.223	566.6
400.602	567.75
400.981	569.13
401.36	570.51
401.739	569.8
402.117	574.14
402.496	574.2
402.875	576.23
403.254	581.25
403.632	581.78
404.011	585.31
404.39	591.02
404.768	594.58
405.147	603.17
405.525	604.13
405.903	607.29
406.282	607.25
406.66	606.85
407.038	601.42
407.417	600.63
407.795	601.5
408.173	603.95
408.551	606.74
408.929	609.87
409.307	612.22
409.685	614.84
410.063	616.12
410.441	615.02
410.818	620.64
411.196	622.94
411.574	627.99
411.952	632.18
412.329	639.8
412.707	651.44
413.084	652.41
413.462	654.54
413.839	656.8
414.217	650.14
414.594	653.26
414.971	656.27
415.349	657.45
415.726	659.78
416.103	656.66
416.48	658.24
416.857	662.68
417.234	665.67
417.611	669.21
417.988	672.07
418.365	668.31
418.742	671.61
419.119	677.46
419.495	679.58
419.872	680.21
420.249	696.24
420.625	702.23
421.002	710.1
421.379	716.51
421.755	723.23
422.131	727.9
422.508	731.96
422.884	735.09
423.26	737.45
423.637	743.75
424.013	731.48
424.389	725.74
424.765	727.42
425.141	728.03
425.517	723.75
425.893	722.52
426.269	723.38
426.645	732.34
427.021	747.01
427.397	756.06
427.772	758.67
428.148	756.11
428.524	756.84
428.899	754.83
429.275	766.03
429.651	775
430.026	785.65
430.401	792.09
430.777	790.96
431.152	787.08
431.527	784.11
431.903	783.06
432.278	782.77
432.653	783.9
433.028	793.51
433.403	810.46
433.778	828.45
434.153	822.73
434.528	818.66
434.903	824.59
435.278	831.41
435.653	838.16
436.027	840.08
436.402	841.95
436.777	844.33
437.151	848.17
437.526	853.22
437.9	854.98
438.275	865.77
438.649	863.68
439.023	869.2
439.398	872.56
439.772	870.21
440.146	873.24
440.52	886.75
440.895	904.54
441.269	927.32
441.643	934.49
442.017	934.06
442.391	931.11
442.765	928.4
443.138	925.63
443.512	937.91
443.886	944.35
444.26	942.51
444.633	950.25
445.007	952.56
445.38	952.23
445.754	956.22
446.127	958.76
446.501	958.63
446.874	959.75
447.248	956.06
447.621	964.38
447.994	962.78
448.367	968.98
448.741	971.06
449.114	967.27
449.487	977.65
449.86	981.06
450.233	983.87
450.606	978.65
450.978	978.28
451.351	984.76
451.724	981.18
452.097	985.54
452.469	993.13
452.842	988.64
453.215	992.6
453.587	995.54
453.96	1000.62
454.332	999.25
454.704	1011.75
455.077	1017.22
455.449	1026.28
455.821	1027.11
456.194	1037.56
456.566	1040.08
456.938	1050.27
457.31	1059.12
457.682	1076.57
458.054	1080.69
458.426	1095.65
458.798	1097.39
459.17	1105.08
459.541	1099.17
459.913	1090.39
460.285	1092.4
460.656	1098.82
461.028	1094.66
461.399	1105.02
461.771	1104.53
462.142	1117.94
462.514	1130.1
462.885	1145.29
463.256	1170.45
463.628	1183.52
463.999	1198
464.37	1223.56
464.741	1221.96
465.112	1223.32
465.483	1220.88
465.854	1231.09
466.225	1221.5
466.596	1221.12
466.967	1236.98
467.338	1240.04
467.708	1261.88
468.079	1266.59
468.45	1273.02
468.82	1273.21
469.191	1277.15
469.561	1277.72
469.932	1287.58
470.302	1284.46
470.673	1307.11
471.043	1324.86
471.413	1333.9
471.783	1354.22
472.154	1382.25
472.524	1396.65
472.894	1429.31
473.264	1448.85
473.634	1451.5
474.004	1456.02
474.374	1480.28
474.743	1490.55
475.113	1523.01
475.483	1540.16
475.853	1560.22
476.222	1574
476.592	1601.74
476.961	1594.84
477.331	1616.44
477.7	1634.66
478.07	1676.73
478.439	1688.98
478.808	1706.06
479.178	1713.47
479.547	1754.45
479.916	1761.12
480.285	1798.35
480.654	1806.51
481.023	1831.69
481.392	1855.34
481.761	1874.58
482.13	1901.99
482.499	1926.8
482.867	1940.33
483.236	1984.27
483.605	2023.27
483.973	2049.77
484.342	2098.74
484.71	2131.84
485.079	2289.19
485.447	2558.21
485.816	2779.81
486.184	2815.72
486.552	2596.23
486.921	2422.29
487.289	2325.69
487.657	2302.67
488.025	2299.73
488.393	2317.48
488.761	2336.13
489.129	2373.55
489.497	2391.14
489.865	2446.61
490.233	2470.06
490.6	2493.59
490.968	2488.74
491.336	2504.55
491.703	2516.58
492.071	2549.95
492.438	2578.66
492.806	2604.28
493.173	2646.81
493.541	2661.21
493.908	2657.09
494.275	2674.46
494.642	2688.38
495.01	2693.97
495.377	2706.15
495.744	2725.5
496.111	2778.29
496.478	2814.88
496.845	2817.2
497.211	2824.11
497.578	2845.51
497.945	2865.43
498.312	2921.33
498.678	2949.65
499.045	2986.75
499.412	2988.65
499.778	2986.47
500.145	2992.53
500.511	3012.71
500.878	3053.93
501.244	3084.71
501.61	3108.95
501.976	3102.81
502.343	3127.47
502.709	3162.69
503.075	3171.2
503.441	3171.52
503.807	3178.73
504.173	3176.08
504.539	3201.47
504.905	3230.55
505.27	3256.33
505.636	3269.2
506.002	3305.26
506.367	3310.48
506.733	3310.1
507.099	3305.06
507.464	3334.99
507.829	3355.47
508.195	3393.87
508.56	3403.46
508.926	3402.61
509.291	3412.03
509.656	3430.78
510.021	3453.28
510.386	3483.68
510.751	3497.43
511.116	3522.59
511.481	3541.19
511.846	3558.84
512.211	3570.44
512.576	3595.57
512.941	3593.88
513.305	3618.46
513.67	3644.9
514.035	3653.23
514.399	3679.76
514.764	3679.63
515.128	3701.19
515.493	3723.98
515.857	3736.5
516.221	3743.58
516.585	3767.62
516.95	3794.01
517.314	3809.8
517.678	3816.87
518.042	3839.39
518.406	3863.64
518.77	3875.31
519.134	3896.96
519.498	3939.21
519.862	3935.22
520.225	3926.14
520.589	3955.33
520.953	3976.62
521.316	4001.4
521.68	3998.34
522.043	4028.86
522.407	4035.95
522.77	4068.33
523.134	4110.06
523.497	4106.87
523.86	4134.93
524.223	4164.12
524.587	4186.19
524.95	4201.48
525.313	4232.6
525.676	4259.55
526.039	4271.35
526.402	4277.99
526.765	4329.48
527.127	4347.74
527.49	4369.09
527.853	4390.56
528.215	4394.05
528.578	4441.94
528.941	4453.8
529.303	4484.49
529.666	4506.41
530.028	4534.38
530.39	4559.92
530.753	4577.04
531.115	4606.44
531.477	4655.31
531.839	4675.93
532.201	4693.29
532.564	4725.03
532.926	4757.98
533.287	4823.9
533.649	4851.25
534.011	4882.06
534.373	4918.32
534.735	4953.89
535.097	4967.72
535.458	5003.8
535.82	5024.09
536.181	5029.03
536.543	5047.53
536.904	5036.89
537.266	5102.91
537.627	5153.17
537.988	5169.42
538.35	5211.15
538.711	5248.17
539.072	5296.45
539.433	5296.54
539.794	5342.28
540.155	5340.8
540.516	5368.01
540.877	5397.58
541.238	5441.11
541.599	5515.71
541.959	5557.75
542.32	5616.99
542.681	5622.78
543.041	5615.53
543.402	5657.16
543.762	5716.83
544.123	5732.14
544.483	5767.61
544.844	5787.09
545.204	5787.53
545.564	5811.43
545.924	5840.57
546.284	5858.21
546.644	5851.36
547.004	5876.87
547.364	5940.4
547.724	5985.23
548.084	5998.23
548.444	6036.74
548.804	6023.25
549.164	6063.76
549.523	6069.06
549.883	6085.37
550.242	6097.25
550.602	6125.92
550.961	6136.39
551.321	6137.42
551.68	6186.23
552.04	6223.61
552.399	6280.95
552.758	6311.61
553.117	6320.79
553.476	6392.05
553.835	6403.63
554.194	6413.66
554.553	6403.65
554.912	6431.38
555.271	6484.76
555.63	6513.81
555.989	6557.07
556.347	6561.11
556.706	6590.13
557.065	6594.23
557.423	6611.97
557.782	6634.73
558.14	6658.08
558.499	6672.03
558.857	6716.78
559.215	6733.18
559.573	6775.42
559.932	6820.72
560.29	6871.08
560.648	6892.85
561.006	6925.57
561.364	6933.32
561.722	6945.96
562.08	6975.32
562.438	6935.1
562.795	6973.84
563.153	7031.15
563.511	7056.9
563.868	7115.09
564.226	7160.93
564.583	7192.35
564.941	7161.26
565.298	7262.8
565.656	7253.88
566.013	7260.2
566.37	7315.32
566.727	7385.46
567.085	7474.41
567.442	7524.17
567.799	7593.62
568.156	7619.04
568.513	7689.51
568.87	7816.39
569.226	7954.15
569.583	8114.46
569.94	8164.77
570.297	8194.62
570.653	8235.62
571.01	8301.86
571.366	8458.26
571.723	8458.08
572.079	8455.08
572.436	8416.86
572.792	8475.61
573.148	8620.16
573.505	8804.15
573.861	8986.76
574.217	8947.29
574.573	8974.39
574.929	8939.72
575.285	9008.45
575.641	9089.47
575.997	9176.23
576.352	9237.8
576.708	9299.51
577.064	9452.97
577.42	9636.88
577.775	9752.89
578.131	9712.5
578.486	9582.19
578.842	9433.02
579.197	9511.87
579.552	9628.43
579.908	9844.69
580.263	9843.18
580.618	9824.2
580.973	10123.18
581.328	10567.12
581.683	10994.39
582.038	10839.08
582.393	10336.2
582.748	9947.76
583.103	9641.51
583.458	9564.89
583.812	9668.99
584.167	9884.21
584.522	10135.77
584.876	10232.55
585.231	10378.4
585.585	10327.94
585.939	10151.45
586.294	10032.82
586.648	10034.14
587.002	10037.45
587.356	10226.14
587.711	10362.98
588.065	10426.27
588.419	10366.86
588.773	10228.49
589.127	10050.75
589.48	9999.22
589.834	9901.37
590.188	9896.66
590.542	9900.62
590.895	9863.88
591.249	9957.71
591.603	9925.17
591.956	9977.09
592.309	10182.78
592.663	10337.18
593.016	10568.91
593.369	10595.71
593.723	10449.31
594.076	10381.12
594.429	10463.15
594.782	10610.92
595.135	10741.95
595.488	10674.04
595.841	10526.76
596.194	10413.2
596.547	10345.3
596.899	10411.32
597.252	10473.07
597.605	10517.94
597.957	10520.24
598.31	10562.98
598.662	10689.76
599.015	10739.7
599.367	10714.47
599.719	10683.85
600.072	10739.54
600.424	10799.61
600.776	10945.38
601.128	10977.93
601.48	11003.52
601.832	10981.62
602.184	11083.91
602.536	11106.67
602.888	11294.91
603.24	11438.06
603.592	11444.49
603.943	11305.29
604.295	11155.37
604.646	11042.76
604.998	11059.84
605.349	11199.63
605.701	11236.63
606.052	11190.85
606.404	11158.34
606.755	11212.24
607.106	11335.18
607.457	11288.06
607.808	11335.05
608.159	11252.26
608.51	11260.93
608.861	11277.69
609.212	11259.19
609.563	11423.68
609.914	11541.27
610.265	11581.81
610.615	11669.61
610.966	11718.31
611.316	11794.16
611.667	11789.31
612.017	11783.74
612.368	11624.74
612.718	11744.97
613.068	11752.18
613.419	11826.88
613.769	11830.15
614.119	11837.29
614.469	11862.93
614.819	11808.5
615.169	11808.27
615.519	11901.29
615.869	11879.49
616.219	11822.52
616.568	11790.53
616.918	11793.45
617.268	11877.32
617.617	11880.03
617.967	11945.24
618.316	11911.73
618.666	11835.24
619.015	11848.19
619.364	11897.75
619.714	12054.34
620.063	12113.81
620.412	12125.71
620.761	12080.62
621.11	12074.77
621.459	12042.58
621.808	12147.83
622.157	12264.64
622.506	12282.54
622.855	12355.07
623.203	12428.03
623.552	12401.94
623.901	12409.54
624.249	12324.47
624.598	12317.79
624.946	12309.93
625.295	12262.72
625.643	12300.72
625.991	12385.46
626.34	12336.76
626.688	12310.4
627.036	12411.42
627.384	12408.66
627.732	12500.43
628.08	12527.36
628.428	12454.62
628.776	12495.31
629.124	12580.95
629.471	12595.54
629.819	12650.34
630.167	12623.28
630.514	12601.48
630.862	12554.53
631.209	12612.67
631.557	12691.63
631.904	12714.39
632.251	12736.4
632.599	12727.56
632.946	12803.35
633.293	12876.48
633.64	12841.83
633.987	12837.11
634.334	12863.08
634.681	12901.25
635.028	12953.94
635.375	12951.67
635.722	13046.37
636.068	13133.15
636.415	13171.39
636.762	13127.9
637.108	13098.85
637.455	13106.21
637.801	13182.21
638.147	13231.45
638.494	13211.81
638.84	13293.21
639.186	13257.3
639.532	13217.32
639.878	13271.38
640.225	13394.24
640.571	13486.71
640.916	13442.41
641.262	13399.28
641.608	13371.04
641.954	13465.21
642.3	13488.74
642.645	13400.64
642.991	13410.35
643.337	13437.49
643.682	13524.54
644.028	13579.61
644.373	13584.55
644.718	13604.49
645.064	13678.6
645.409	13727.09
645.754	13767.15
646.099	13844.99
646.444	13849.84
646.789	13916.15
647.134	13926.56
647.479	13914.63
647.824	13911.53
648.169	13993.84
648.513	14038.78
648.858	14041.55
649.203	14118.23
649.547	14175.26
649.892	14123.45
650.236	14043.05
650.581	13997.56
650.925	13958.91
651.269	13936.25
651.613	14068.03
651.958	14126.81
652.302	14208.04
652.646	14164.51
652.99	14146.96
653.334	14334.96
653.678	14329.16
654.022	14450.91
654.365	14430.29
654.709	14442.43
655.053	14493.7
655.396	16701.88
655.74	25371.3
656.083	31905.44
656.427	34603.83
656.77	28217.42
657.114	20949.3
657.457	17125.71
657.8	15409.29
658.143	14826.78
658.486	14611.55
658.83	14563.29
659.173	14474.88
659.516	14590.04
659.858	14638.13
660.201	14563.41
660.544	14531.97
660.887	14559.19
661.229	14653.06
661.572	14636.16
661.915	14672.61
662.257	14661.25
662.6	14732.42
662.942	14736.66
663.284	14644.88
663.627	14603.93
663.969	14530.53
664.311	14546.89
664.653	14569.78
664.995	14571.97
665.337	14622.99
665.679	14617.8
666.021	14600.51
666.363	14527.11
666.705	14623.42
667.046	14661.52
667.388	14642.8
667.73	14715.65
668.071	14797.34
668.413	14761
668.754	14835.52
669.096	14751.1
669.437	14850.36
669.778	14794.13
670.119	14739.57
670.461	14637.78
670.802	14719.89
671.143	14704.36
671.484	14770.83
671.825	14822.23
672.165	14925.34
672.506	14929.67
672.847	14917.71
673.188	14919.56
673.528	14858.27
673.869	14851.02
674.21	14887.14
674.55	14868.6
674.89	14852.49
675.231	14901.76
675.571	14938.99
675.911	14995.8
676.252	14997.33
676.592	14964.69
676.932	14874.38
677.272	14806.44
677.612	14859.22
677.952	14913.94
678.292	14914.33
678.631	14789.32
678.971	14802.26
679.311	14926.73
679.651	14924.38
679.99	14977.64
680.33	14993.05
680.669	14999.37
681.009	15001.19
681.348	15047.27
681.687	15080.64
682.026	15076.41
682.366	15047.19
682.705	15146.26
683.044	15202.56
683.383	15189.04
683.722	15176.05
684.061	15015.17
684.4	15086.37
684.738	15108.66
685.077	15230.97
685.416	15149.09
685.754	15145.89
686.093	15200.46
686.431	15241.51
686.77	15037.18
687.108	15078.9
687.447	15122.08
687.785	15193.93
688.123	15149.1
688.461	15203.16
688.799	15219.92
689.137	15254.43
689.475	15229.89
689.813	15212
690.151	15246.4
690.489	15182.48
690.827	15258.26
691.164	15382.41
691.502	15351.32
691.84	15293.67
692.177	15246.96
692.515	15197.84
692.852	15064.7
693.189	15201.94
693.527	15148.88
693.864	15097.53
694.201	15068.29
694.538	14974.69
694.875	14964.62
695.212	14951.94
695.549	14966.25
695.886	14900.18
696.223	14920.39
696.56	15077.32
696.897	15100.96
697.233	15188.07
697.57	15240.97
697.906	15386.11
698.243	15326.28
698.579	15244.69
698.916	15293.11
699.252	15210.61
699.588	15213.78
699.924	15320.45
700.261	15310.8
700.597	15292.64
700.933	15310.17
701.269	15138.62
701.605	15164.62
701.941	15057.29
702.276	15062.82
702.612	14972.69
702.948	14970.82
703.283	14969.13
703.619	15017.5
703.954	15187.83
704.29	15211.29
704.625	15368.41
704.961	15270.71
705.296	15320.4
705.631	15279.18
705.966	15193.39
706.301	15144.22
706.637	15178.62
706.972	15414.02
707.306	15370.65
707.641	15306.08
707.976	15298.96
708.311	15322.9
708.646	15331.27
708.98	15199.34
709.315	15129.18
709.649	15121.35
709.984	15193.98
710.318	15045.44
710.653	15074.56
710.987	15098.56
711.321	15188.33
711.655	15118.25
711.989	15011.05
712.324	15076.51
712.658	15041.13
712.992	15190.24
713.325	15258.09
713.659	15338.5
713.993	15289.12
714.327	15358.55
714.66	15435.54
714.994	15328.05
715.328	15327.33
715.661	15330.91
715.994	15253.99
716.328	15078.02
716.661	15114.51
716.994	15040.8
717.328	14826.26
717.661	14796.41
717.994	14841.52
718.327	14931.07
718.66	14965.03
718.993	15003.92
719.325	14935.76
719.658	14922.13
719.991	14880.36
720.324	14880.86
720.656	14836.84
720.989	14900.87
721.321	14918.25
721.654	14993.02
721.986	14978.27
722.318	14949.29
722.651	15042.19
722.983	14914.97
723.315	14847.72
723.647	14847.78
723.979	14893.37
724.311	14990.8
724.643	14943.21
724.975	14844.45
725.307	14651.95
725.638	14734.97
725.97	14756.36
726.302	14902.48
726.633	14824.34
726.965	14750.85
727.296	14608.11
727.628	14624.42
727.959	14614.5
728.29	14676.19
728.621	14571.38
728.952	14697.3
729.284	14645.36
729.615	14672.55
729.945	14616.7
730.276	14615.96
730.607	14680.42
730.938	14731.26
731.269	14721.26
731.599	14682.64
731.93	14661.57
732.261	14562.86
732.591	14573.83
732.922	14469.49
733.252	14331.81
733.582	14328.53
733.912	14387.11
734.243	14448.81
734.573	14410.94
734.903	14382.9
735.233	14212.2
735.563	14270.99
735.893	14175.21
736.223	14163.32
736.552	14220.62
736.882	14179.35
737.212	14124.53
737.541	14128.88
737.871	14087.64
738.2	14011.62
738.53	13851.42
738.859	13840.49
739.188	13880.22
739.518	14021.37
739.847	14045.01
740.176	13958.53
740.505	13868.38
740.834	13835.98
741.163	13777.14
741.492	13673.34
741.821	13577.36
742.15	13503.49
742.478	13614.93
742.807	13605.4
743.136	13575.53
743.464	13411.4
743.793	13314.99
744.121	13303.95
744.449	13293.41
744.778	13257.25
745.106	13270.91
745.434	13267.61
745.762	13160.98
746.09	13197.8
746.418	13171.3
746.746	13160.78
747.074	13060.66
747.402	13158.81
747.73	13149.15
748.057	13147.53
748.385	13011.75
748.712	12923.45
749.04	12915.27
749.367	12967.45
749.695	12887.8
750.022	12916.01
750.349	12786.89
750.677	12849.74
751.004	12856.64
751.331	12815.06
751.658	12832.03
751.985	12744.11
752.312	12606.43
752.639	12582.4
752.966	12543.68
753.292	12410.66
753.619	12518.71
753.946	12429.91
754.272	12390.83
754.599	12399.75
754.925	12313.71
755.251	12300.25
755.578	12323.79
755.904	12280.08
756.23	12223.75
756.556	12296.77
756.882	12389.15
757.208	12354.77
757.534	12394.82
757.86	12398.49
758.186	12462.35
758.512	12389.83
758.838	12312.5
759.163	12160.34
759.489	12120.31
759.814	11956.15
760.14	11962.77
760.465	11973.09
760.791	11745.06
761.116	11782.72
761.441	11744.64
761.766	11787.08
762.092	11716.62
762.417	11610.21
762.742	11544.35
763.066	11506.61
763.391	11637.54
763.716	11704.83
764.041	11584.22
764.366	11543.85
764.69	11472.31
765.015	11550.81
765.339	11520.27
765.664	11508.21
765.988	11437.56
766.312	11370.85
766.637	11308.22
766.961	11341.56
767.285	11332.12
767.609	11170.21
767.933	11026.84
768.257	11098.65
768.581	11086.32
768.905	11227.12
769.229	11215.23
769.552	11176.16
769.876	11125.99
770.2	10993.13
770.523	10987.22
770.847	10957.24
771.17	10916.27
771.493	10866.54
771.817	10830.47
772.14	10740.97
772.463	10686.34
772.786	10664.17
773.109	10617.02
773.432	10585.59
773.755	10488.23
774.078	10457.49
774.401	10490.28
774.724	10452.94
775.046	10462.54
775.369	10346.1
775.692	10302.16
776.014	10335.59
776.336	10248.62
776.659	10262.32
776.981	10236.53
777.303	10143.2
777.626	10064.72
777.948	10089.92
778.27	10115.89
778.592	10140.34
778.914	10118.44
779.236	10030.06
779.557	10089.63
779.879	10230.35
780.201	10241.05
780.523	10183.43
780.844	10050.55
781.166	10085.73
781.487	10110.49
781.809	10090.03
782.13	10099.88
782.451	10025.46
782.772	10064.57
783.094	9982.37
783.415	10013.2
783.736	10006.08
784.057	10076.37
784.378	10094.87
784.698	10066.97
785.019	10118.76
785.34	10026.58
785.661	10144.87
785.981	10218.98
786.302	10264.06
786.622	10295.88
786.943	10366.06
787.263	10286.2
787.583	10311.69
787.903	10363.9
788.224	10331.2
788.544	10256.72
788.864	10165.91
789.184	10308.38
789.504	10323.72
789.824	10337.38
790.143	10339.51
790.463	10331.37
790.783	10273
791.102	10246.32
791.422	10313.54
791.741	10267.23
792.061	10246.91
792.38	10195.29
792.699	10026.36
793.019	9993.24
793.338	9959.3
793.657	10008.79
793.976	10147.09
794.295	10143.01
794.614	10216.31
794.933	10141.82
795.252	10107.45
795.57	10134.08
795.889	10092.83
796.208	10016.04
796.526	9894.62
796.845	9884.42
797.163	9845.98
797.482	9949.18
797.8	9981.82
798.118	9899.83
798.436	9907.73
798.754	9891.67
799.073	9845.44
799.391	9860.45
799.708	9790.96
800.026	9727.52
800.344	9690.71
800.662	9619.46
800.98	9583.54
801.297	9597.67
801.615	9611.89
801.932	9633.85
802.25	9590.23
802.567	9488.97
802.884	9466.89
803.202	9449.22
803.519	9482.65
803.836	9473.96
804.153	9385.1
804.47	9336.28
804.787	9325.45
805.104	9360.46
805.421	9420.52
805.737	9371.04
806.054	9321.03
806.371	9312
806.687	9258.37
807.004	9223.63
807.32	9275.28
807.637	9293.85
807.953	9263.1
808.269	9219.55
808.585	9230.32
808.902	9153.65
809.218	9160.22
809.534	9147.36
809.85	9119.41
810.165	9031.53
810.481	8974.37
810.797	8876.52
811.113	8840.04
811.428	8794.92
811.744	8787.24
812.059	8839.26
812.375	8767.79
812.69	8611.46
813.006	8470.2
813.321	8506.88
813.636	8548.72
813.951	8600.47
814.266	8564.11
814.581	8548.44
814.896	8499.2
815.211	8467.65
815.526	8517.27
815.841	8481.36
816.155	8509.16
816.47	8475.04
816.784	8437.65
817.099	8349.81
817.413	8340.82
817.728	8425.65
818.042	8373.51
818.356	8384.57
818.67	8296.15
818.985	8237.54
819.299	8165.56
819.613	8185.69
819.926	8124.52
820.24	8148.03
820.554	8184.73
820.868	8157.58
821.182	8045.12
821.495	8039.85
821.809	7936.94
822.122	7919.97
822.436	7923.15
822.749	7852.41
823.062	7770.26
823.376	7733.72
823.689	7669.81
824.002	7667.88
824.315	7660.73
824.628	7722.49
824.941	7690.22
825.254	7565.6
825.566	7481.47
825.879	7551.08
826.192	7581.93
826.504	7568.93
826.817	7594.18
827.129	7583.31
827.442	7459.29
827.754	7402.19
828.066	7429.84
828.379	7433.36
828.691	7507.69
829.003	7478.72
829.315	7441.67
829.627	7358.14
829.939	7322.23
830.251	7352.77
830.562	7323.35
830.874	7355.43
831.186	7293.43
831.497	7247.33
831.809	7164.88
832.12	7040.4
832.432	6977.74
832.743	7028.35
833.054	7052.26
833.365	7057.81
833.676	6998.13
833.988	6933.28
834.299	6900.71
834.61	6893.25
834.92	6876.84
835.231	6933.41
835.542	6966.14
835.853	6929.66
836.163	6888.27
836.474	6868.11
836.784	6842.73
837.095	6823.58
837.405	6824.7
837.715	6849.15
838.026	6862.14
838.336	6798.62
838.646	6706.02
838.956	6623.99
839.266	6602.96
839.576	6602.42
839.886	6654.19
840.195	6692.07
840.505	6619.41
840.815	6536.81
841.124	6459.99
841.434	6436.31
841.743	6477.49
842.053	6510.56
842.362	6444.54
842.671	6380.81
842.981	6300.54
843.29	6209.22
843.599	6219.18
843.908	6199.6
844.217	6159.73
844.526	6202.92
844.835	6180.63
845.143	6092.55
845.452	5962.88
845.761	5949.59
846.069	5932.72
846.378	6008.96
846.686	5970.42
846.995	5932.67
847.303	5886.26
847.611	5883.81
847.919	5826.39
848.227	5842.96
848.535	5819.96
848.843	5834.8
849.151	5824.86
849.459	5818.15
849.767	5739.97
850.075	5655.37
850.382	5609.5
850.69	5627.08
850.998	5643.24
851.305	5636
851.612	5677.99
851.92	5668.12
852.227	5647.3
852.534	5614.64
852.841	5611.49
853.148	5633.89
853.455	5718.57
853.762	5675.57
854.069	5643.35
854.376	5541.12
854.683	5498.57
854.99	5457.28
855.296	5390.84
855.603	5355.92
855.909	5357.85
856.216	5327.4
856.522	5272.77
856.828	5228.21
857.135	5152.55
857.441	5104.24
857.747	5091.56
858.053	5147.75
858.359	5130.35
858.665	5171.34
858.971	5153.34
859.276	5083.61
859.582	5018.39
859.888	5009.11
860.193	5008.32
860.499	5030.8
860.804	5064.15
861.11	5035.31
861.415	5000.61
861.72	4974.41
862.026	4895.27
862.331	4886.5
862.636	4906.35
862.941	4931.15
863.246	4885.34
863.551	4862.74
863.855	4855.08
864.16	4818.13
864.465	4767.43
864.769	4746.46
865.074	4711.15
865.378	4690.54
865.683	4669.61
865.987	4687.79
866.291	4625.41
866.596	4563.03
866.9	4499.94
867.204	4482.49
867.508	4480.46
867.812	4495.5
868.116	4493.27
868.42	4450.41
868.723	4376.7
869.027	4351.99
869.331	4342.76
869.634	4339.9
869.938	4321.7
870.241	4340.82
870.544	4313.55
870.848	4295.28
871.151	4269.23
871.454	4229.44
871.757	4173.68
872.06	4135.84
872.363	4119.75
872.666	4156.9
872.969	4160.06
873.272	4147.06
873.574	4135.41
873.877	4087.82
874.18	4048.22
874.482	4020.59
874.785	4053.64
875.087	4062.84
875.389	4076.64
875.692	4051.68
875.994	4016.55
876.296	3975.35
876.598	3940.6
876.9	3887.62
877.202	3852.55
877.504	3867.61
877.805	3860.99
878.107	3840.12
878.409	3802.4
878.71	3796.62
879.012	3765.28
879.313	3737.93
879.615	3753.03
879.916	3725.09
880.217	3707.48
880.518	3701.31
880.82	3702.49
881.121	3656.29
881.422	3624.75
881.723	3582.03
882.023	3546.9
882.324	3538.73
882.625	3529.58
882.926	3545.14
883.226	3565.93
883.527	3511.3
883.827	3473.46
884.128	3441.72
884.428	3434.06
884.728	3398.97
885.028	3405.22
885.328	3413.45
885.629	3400.75
885.929	3391.56
886.228	3361.55
886.528	3310.21
886.828	3261.81
887.128	3248.28
887.427	3243.4
887.727	3276.54
888.027	3287.69
888.326	3278.7
888.625	3251.29
888.925	3191.43
889.224	3172.58
889.523	3137.39
889.822	3110.02
890.121	3092.7
890.42	3093.4
890.719	3111.53
891.018	3078.31
891.317	3074.66
891.616	3067.33
891.914	3024.23
892.213	3007.54
892.512	3004.14
892.81	3004.15
893.108	3009.61
893.407	3022.77
893.705	3023.8
894.003	3003.77
894.301	2988.92
894.599	2969.07
894.897	2963.3
895.195	2940.78
895.493	2910.3
895.791	2946.93
896.089	2951.73
896.386	2946.86
896.684	2945.32
896.981	2922.74
897.279	2901.73
897.576	2918.04
897.874	2908.25
898.171	2942.7
898.468	2956.17
898.765	2966.84
899.062	2992.14
899.359	2972.02
899.656	2959.26
899.953	2935.31
900.25	2927.94
900.547	2925.77
900.843	2941.35
901.14	2976.17
901.436	2992.87
901.733	2996.98
902.029	2972.51
902.325	2939.44
902.622	2895.56
902.918	2885.26
903.214	2873.36
903.51	2845.62
903.806	2859.74
904.102	2849.09
904.398	2845.31
904.694	2825.59
904.989	2837.93
905.285	2795.44
905.581	2761.48
905.876	2782.61
906.171	2785.08
906.467	2793.92
906.762	2802.38
907.057	2791.43
907.353	2781.76
907.648	2754.96
907.943	2735.03
908.238	2717.27
908.533	2691.86
908.827	2685.51
909.122	2683.44
909.417	2693.46
909.711	2705.75
910.006	2684.15
910.301	2646.81
910.595	2628.28
910.889	2623.68
911.184	2586
911.478	2601.93
911.772	2624.11
912.066	2618.6
912.36	2597.37
912.654	2572.32
912.948	2557.28
913.242	2552.04
913.536	2521.6
913.829	2503.18
914.123	2489.93
914.416	2466.13
914.71	2478.8
915.003	2491.51
915.297	2485.34
915.59	2477.51
915.883	2466.21
916.176	2461.13
916.469	2443.58
916.762	2429.46
917.055	2408.36
917.348	2413.04
917.641	2427.19
917.934	2431.82
918.226	2412.48
918.519	2369.91
918.811	2335.5
919.104	2307.93
919.396	2278.53
919.689	2258.08
919.981	2250.8
920.273	2247.45
920.565	2255.44
920.857	2240.3
921.149	2225.44
921.441	2200.85
921.733	2179.64
922.025	2145.58
922.316	2135.31
922.608	2141.1
922.9	2146.78
923.191	2157.03
923.483	2178.33
923.774	2145.06
924.065	2119.1
924.357	2084.18
924.648	2060.47
924.939	2042.96
925.23	2030.74
925.521	2026.47
925.812	2022.88
926.102	2020.26
926.393	2020.46
926.684	2031.11
926.975	2019.02
927.265	1999.04
927.556	1978.33
927.846	1942.53
928.136	1919.7
928.427	1914.27
928.717	1918.72
929.007	1923.12
929.297	1910.48
929.587	1896.8
929.877	1882.15
930.167	1866.49
930.457	1840.57
930.746	1817.39
931.036	1815.83
931.325	1816.19
931.615	1819.38
931.904	1825.22
932.194	1806.36
932.483	1794.05
932.772	1779.88
933.062	1754.2
933.351	1722.63
933.64	1695.27
933.929	1679.52
934.218	1668.96
934.506	1661.82
934.795	1656.9
935.084	1652.53
935.372	1642.96
935.661	1619.27
935.949	1595.97
936.238	1577.67
936.526	1558.59
936.815	1549.59
937.103	1547.19
937.391	1538.6
937.679	1534.56
937.967	1528.14
938.255	1522.2
938.543	1512.41
938.831	1487.82
939.118	1475.83
939.406	1452.36
939.693	1431.71
939.981	1425.79
940.268	1424.24
940.556	1425.52
940.843	1426.76
941.13	1430.43
941.418	1422.46
941.705	1413.99
941.992	1398.56
942.279	1376.92
942.566	1360.23
942.852	1346.44
943.139	1337.33
943.426	1334.78
943.712	1334.11
943.999	1325.32
944.285	1321.12
944.572	1300.18
944.858	1287.84
945.144	1277.38
945.431	1265.51
945.717	1250.2
946.003	1248.2
946.289	1235.1
946.575	1223.95
946.861	1217.46
947.146	1212.02
947.432	1201.26
947.718	1183.69
948.003	1173.73
948.289	1164.22
948.574	1154.36
948.86	1148.07
949.145	1147.64
949.43	1141.41
949.715	1138.42
950	1129.34
950.285	1122.33
950.57	1112.97
950.855	1106.02
951.14	1093.18
951.425	1084.91
951.709	1072.26
951.994	1066.12
952.278	1060.93
952.563	1057.8
952.847	1052.26
953.132	1046.48
953.416	1045.99
953.7	1038.68
953.984	1035.15
954.268	1026.49
954.552	1016.64
954.836	1008.09
955.12	997.07
955.404	993.22
955.687	983.84
955.971	977.03
956.254	970.98
956.538	965.41
956.821	959.89
957.105	946.64
957.388	940.53
957.671	928.4
957.954	924.9
958.237	923.35
958.52	915.08
958.803	910.69
959.086	904.97
959.369	903.38
959.652	891.99
959.934	881.38
960.217	871.61
960.499	864.7
960.782	854.76
961.064	849.42
961.346	845.88
961.629	841.65
961.911	839.14
962.193	836.7
962.475	834.93
962.757	828.19
963.039	821.45
963.32	818.27
963.602	804.87
963.884	792.61
964.165	786.53
964.447	781.64
964.728	772.07
965.01	768.11
965.291	760.54
965.572	758.24
965.853	760.17
966.134	751.83
966.415	749.48
966.696	745.4
966.977	733.99
967.258	728.34
967.539	723.53
967.819	720.5
968.1	719.25
968.38	714.85
968.661	716.42
968.941	712.26
969.222	710.24
969.502	702.57
969.782	698.6
970.062	692.04
970.342	688.41
970.622	682.42
970.902	678.91
971.182	671.1
971.462	667.14
971.741	664.42
972.021	660.26
972.3	656.7
972.58	653.93
972.859	654.33
973.138	648.46
973.418	643.32
973.697	636.25
973.976	633.02
974.255	627.27
974.534	623.88
974.813	618.06
975.092	617.51
975.37	616.08
975.649	614.78
975.928	613.03
976.206	608.45
976.485	605.39
976.763	599.25
977.041	593.09
977.32	589.19
977.598	585.4
977.876	580.7
978.154	580.01
978.432	578.31
978.71	576.48
978.988	574.44
979.265	570.04
979.543	566.59
979.821	560.15
980.098	553.77
980.376	550.03
980.653	547.34
980.93	543.38
981.208	543.51
981.485	540.27
981.762	539.23
982.039	538.63
982.316	536.3
982.593	535.69
982.87	531.47
983.146	529.4
983.423	524.28
983.7	524.53
983.976	518.59
984.253	516.19
984.529	516.07
984.805	511.61
985.082	510.13
985.358	506.53
985.634	505.7
985.91	502.73
986.186	500.62
986.462	496.5
986.738	494.7
987.013	491.96
987.289	485.89
987.565	484.64
987.84	483.74
988.116	481.22
988.391	478.07
988.666	477.79
988.942	476.54
989.217	474.13
989.492	472.84
989.767	470.09
990.042	467.44
990.317	463.47
990.592	464.53
990.866	464.03
991.141	460.24
991.416	456.72
991.69	457.98
991.964	455.82
992.239	452.92
992.513	452.58
992.787	452.2
993.062	450.36
993.336	448.05
993.61	446.98
993.884	443.16
994.158	440.6
994.431	439.88
994.705	437.15
994.979	437.85
995.252	435.26
995.526	433.36
995.799	430.38
996.073	430.47
996.346	427.14
996.619	425.97
996.892	423.86
997.165	422.49
997.438	420.38
997.711	418.41
997.984	416.47
998.257	416.02
998.53	416.57
998.802	412.48
999.075	412.11
999.347	411.81
999.62	410.84
999.892	409.72
1000.165	405.53
1000.437	405.48
1000.709	406.15
1000.981	403.02
1001.253	402.21
1001.525	401.48
1001.797	400.18
1002.068	398.03
1002.34	401.35
1002.612	397.23
1002.883	399.25
1003.155	397.54
1003.426	396.68
1003.698	394.65
1003.969	394.43
1004.24	391.17
1004.511	389.44
1004.782	392.49
1005.053	388.33
1005.324	389.91
1005.595	389.44
1005.866	387.11
1006.136	387.41
1006.407	385.33
1006.678	386.99
1006.948	385.96
1007.218	385.41
1007.489	383.15
1007.759	380.84
1008.029	380.99
1008.299	378.95
1008.569	380.23
1008.839	379.56
1009.109	377.45
1009.379	377.99
1009.649	377
1009.918	377.07
1010.188	375.92
1010.458	376
1010.727	374.64
1010.996	374.83
1011.266	375.2
1011.535	375.26
1011.804	373.61
1012.073	370.82
1012.342	370.17
1012.611	370.42
1012.88	369.35
1013.149	368.89
1013.417	367.67
1013.686	370.28
1013.955	368.38
1014.223	367.3
1014.492	365.51
1014.76	365.34
1015.028	364.87
1015.296	366.14
1015.565	365.57
1015.833	366.09
1016.101	364.11
1016.368	365.67
1016.636	366.32
1016.904	363.75
1017.172	362.43
1017.439	363.95
1017.707	362.65
1017.974	363.51
1018.242	362.86
1018.509	362.24
1018.776	363.26
1019.044	362.08
1019.311	362.15
1019.578	360.17
1019.845	361.15
1020.112	360.3
1020.378	360.3
1020.645	360.3
