Data from 190729_Ar_25K_post_anneal_FLMS138901_17-40-51-027.txt Node
Date: Mon Jul 29 17:40:51 EDT 2019
User: pSAM
Spectrometer: FLMS13890
Trigger mode: 0
Integration Time (sec): 5.000000E-3
Scans to average: 1000
Electric dark correction enabled: true
Nonlinearity correction enabled: false
Boxcar width: 0
XAxis mode: Wavelengths
Number of Pixels in Spectrum: 2048
>>>>>Begin Spectral Data<<<<<
342.097	-63.95
342.483	-63.95
342.868	-63.95
343.254	-104.02
343.639	-106.79
344.025	-104.15
344.41	-101.1
344.796	-92.36
345.181	-82.31
345.567	-68.84
345.952	-51.86
346.337	-37.97
346.722	-20.28
347.107	-0.55
347.493	21.45
347.878	40.19
348.263	60.88
348.648	78.77
349.033	99.5
349.418	118.81
349.802	139.83
350.187	155.5
350.572	173.23
350.957	192.48
351.342	218.84
351.726	233.88
352.111	247.16
352.495	262.06
352.88	273.34
353.264	287.26
353.649	294.89
354.033	307.79
354.418	315.64
354.802	322.3
355.186	329.66
355.57	333.86
355.955	339.15
356.339	345.08
356.723	345.2
357.107	348.99
357.491	367.47
357.875	356.65
358.259	356.91
358.643	355.87
359.026	357.33
359.41	353.53
359.794	354.28
360.178	355.62
360.561	354.26
360.945	353.41
361.329	351.28
361.712	349.94
362.096	347.12
362.479	346.29
362.862	344.14
363.246	344.48
363.629	340.14
364.012	340.16
364.396	339.22
364.779	337.51
365.162	335.38
365.545	335.11
365.928	332.38
366.311	333.07
366.694	332.64
367.077	333.07
367.46	329.92
367.843	333.12
368.226	332.41
368.608	328.76
368.991	329.83
369.374	328.47
369.756	329.92
370.139	329.74
370.521	327.8
370.904	327.8
371.286	328.51
371.669	330.55
372.051	328.47
372.433	330.52
372.816	331.93
373.198	329.67
373.58	332.14
373.962	331.76
374.344	332.62
374.726	332.35
375.108	334.75
375.49	336.73
375.872	335.11
376.254	334.32
376.636	334.49
377.018	336.25
377.399	335.87
377.781	338.39
378.163	338.58
378.544	338.53
378.926	340.09
379.307	340.82
379.689	343.28
380.07	341.64
380.452	342.54
380.833	344.66
381.214	346.08
381.596	345.36
381.977	347.59
382.358	345.34
382.739	346.99
383.12	348.31
383.501	349.87
383.882	350.08
384.263	349.34
384.644	351.2
385.025	351.69
385.406	352.4
385.787	351.99
386.167	352.83
386.548	353.26
386.929	352.79
387.309	354.1
387.69	357.67
388.07	356.19
388.451	354.98
388.831	358.13
389.211	356.93
389.592	359.04
389.972	357.66
390.352	357.01
390.733	359.85
391.113	358.86
391.493	358.25
391.873	359.4
392.253	362.95
392.633	361.57
393.013	364.32
393.393	364.54
393.772	365.51
394.152	364.93
394.532	362.58
394.912	367.99
395.291	363.58
395.671	366.14
396.05	370.03
396.43	368.32
396.809	367.29
397.189	368.71
397.568	370.41
397.948	368.39
398.327	371.67
398.706	371.11
399.085	374.21
399.465	374.38
399.844	372.81
400.223	372.2
400.602	375.4
400.981	372.08
401.36	376.24
401.739	375.32
402.117	374.3
402.496	377.03
402.875	376.04
403.254	375.08
403.632	376.29
404.011	379.73
404.39	380.7
404.768	377.96
405.147	382.76
405.525	384.48
405.903	382.96
406.282	383.66
406.66	381.85
407.038	382.06
407.417	384.26
407.795	382.17
408.173	382.7
408.551	385.91
408.929	386.55
409.307	384.64
409.685	387.57
410.063	387.91
410.441	387.01
410.818	389.81
411.196	389.6
411.574	390.96
411.952	390.09
412.329	390.8
412.707	393.58
413.084	394.47
413.462	396.87
413.839	397.94
414.217	394.27
414.594	397.31
414.971	395.24
415.349	397.22
415.726	396.62
416.103	399.24
416.48	396.96
416.857	398.25
417.234	399.62
417.611	400.69
417.988	400.62
418.365	400.5
418.742	402.64
419.119	401.73
419.495	402.34
419.872	402.83
420.249	410.95
420.625	406.51
421.002	408.52
421.379	409.23
421.755	411.19
422.131	414.46
422.508	412.68
422.884	412.76
423.26	413.65
423.637	416.69
424.013	413.21
424.389	412.75
424.765	412.4
425.141	414.25
425.517	414.7
425.893	414.1
426.269	414.57
426.645	415.48
427.021	418.04
427.397	419.98
427.772	422.01
428.148	420.67
428.524	423.28
428.899	422.2
429.275	422.2
429.651	424.4
430.026	426.38
430.401	427.82
430.777	427.61
431.152	428.34
431.527	428.71
431.903	427.96
432.278	427.73
432.653	429.31
433.028	429.5
433.403	432.72
433.778	435.5
434.153	435.69
434.528	436.01
434.903	436.22
435.278	437.21
435.653	441.64
436.027	441.81
436.402	445.04
436.777	443.54
437.151	443.76
437.526	444.36
437.9	444.52
438.275	445.89
438.649	447.7
439.023	445.1
439.398	448.93
439.772	448.08
440.146	449.21
440.52	453.11
440.895	452.93
441.269	457.75
441.643	458.75
442.017	461.79
442.391	457.26
442.765	458.49
443.138	459.88
443.512	460.56
443.886	461.18
444.26	465.26
444.633	463.55
445.007	465.1
445.38	466.77
445.754	465.53
446.127	467.15
446.501	467.24
446.874	466.91
447.248	467.18
447.621	468.27
447.994	466.26
448.367	469.24
448.741	469.97
449.114	469.65
449.487	472.64
449.86	472.89
450.233	473.06
450.606	471.96
450.978	473.42
451.351	485.05
451.724	475.29
452.097	474.42
452.469	476.39
452.842	476.48
453.215	477.57
453.587	478.52
453.96	477.93
454.332	478.62
454.704	482.63
455.077	483.59
455.449	485.79
455.821	484.91
456.194	487.41
456.566	488.14
456.938	489.19
457.31	492.74
457.682	495.42
458.054	496.49
458.426	498.63
458.798	503.17
459.17	503.11
459.541	502.35
459.913	499.42
460.285	500.25
460.656	501.68
461.028	500.29
461.399	503.68
461.771	503.53
462.142	505.57
462.514	508.28
462.885	510.21
463.256	517.06
463.628	519
463.999	520.99
464.37	526.78
464.741	526.09
465.112	526.52
465.483	528.95
465.854	529.62
466.225	530.12
466.596	530.02
466.967	535.43
467.338	532.81
467.708	539.1
468.079	540.07
468.45	539.44
468.82	541.89
469.191	542.26
469.561	543.8
469.932	545.03
470.302	541.01
470.673	549.22
471.043	550.34
471.413	554.07
471.783	556.2
472.154	560.39
472.524	565.14
472.894	572.43
473.264	575.82
473.634	579.84
474.004	581.1
474.374	582.95
474.743	584.2
475.113	590.17
475.483	594.11
475.853	598.75
476.222	604.77
476.592	609.69
476.961	609.36
477.331	609.97
477.7	614.19
478.07	623.44
478.439	624.96
478.808	630.74
479.178	631.8
479.547	638.92
479.916	641
480.285	648.88
480.654	651.14
481.023	654.11
481.392	658.68
481.761	664.6
482.13	670.1
482.499	673.74
482.867	676.87
483.236	685.87
483.605	694.24
483.973	700.32
484.342	707.99
484.71	716.09
485.079	724.61
485.447	773.85
485.816	830.91
486.184	864.8
486.552	844.9
486.921	799.97
487.289	773.28
487.657	764.63
488.025	762.56
488.393	761.95
488.761	766.88
489.129	774.71
489.497	777.3
489.865	789.2
490.233	794.85
490.6	802.81
490.968	803.89
491.336	804.75
491.703	809.66
492.071	814.87
492.438	819.1
492.806	826.22
493.173	835.78
493.541	841.58
493.908	841.36
494.275	844.99
494.642	843.54
495.01	848.8
495.377	848.9
495.744	855.19
496.111	865.43
496.478	877.2
496.845	880.73
497.211	882.24
497.578	885.57
497.945	888.38
498.312	897.98
498.678	908.41
499.045	917.62
499.412	917.37
499.778	922.17
500.145	921.83
500.511	922.22
500.878	933.13
501.244	940.15
501.61	947.13
501.976	950.16
502.343	952.34
502.709	959.89
503.075	965.79
503.441	964.3
503.807	970.25
504.173	971.16
504.539	972.68
504.905	979.49
505.27	987.38
505.636	988.9
506.002	999.54
506.367	1002.93
506.733	1006.57
507.099	1006.77
507.464	1010.94
507.829	1014.13
508.195	1023.14
508.56	1026.77
508.926	1029.04
509.291	1029.88
509.656	1034.63
510.021	1039.8
510.386	1044.92
510.751	1052.55
511.116	1057.47
511.481	1063.02
511.846	1069.95
512.211	1071.4
512.576	1074.18
512.941	1079.74
513.305	1083.01
513.67	1088.28
514.035	1092.59
514.399	1098.68
514.764	1101.79
515.128	1105.76
515.493	1112.79
515.857	1114.84
516.221	1115.22
516.585	1123.12
516.95	1129.87
517.314	1134.06
517.678	1136.62
518.042	1140.99
518.406	1151.63
518.77	1154.22
519.134	1158.4
519.498	1170.34
519.862	1171.74
520.225	1171.11
520.589	1179.11
520.953	1186.16
521.316	1189.01
521.68	1193.97
522.043	1199.76
522.407	1196.26
522.77	1204.74
523.134	1220.24
523.497	1219.42
523.86	1228.32
524.223	1233.31
524.587	1243.47
524.95	1245.59
525.313	1252.6
525.676	1260.17
526.039	1268.57
526.402	1272.81
526.765	1282.36
527.127	1293.13
527.49	1297.14
527.853	1304.61
528.215	1303.31
528.578	1312.97
528.941	1320.09
529.303	1330.11
529.666	1331.96
530.028	1342.53
530.39	1351.06
530.753	1351.08
531.115	1359.06
531.477	1369.87
531.839	1380.39
532.201	1386.02
532.564	1392.13
532.926	1401.09
533.287	1417.3
533.649	1422.76
534.011	1429.19
534.373	1439.75
534.735	1448.85
535.097	1452.38
535.458	1462.53
535.82	1473.34
536.181	1481.04
536.543	1481.78
536.904	1481.47
537.266	1500.8
537.627	1511.26
537.988	1520.99
538.35	1532.72
538.711	1544.05
539.072	1556.04
539.433	1560.89
539.794	1573.52
540.155	1579.63
540.516	1586.76
540.877	1595.79
541.238	1609.6
541.599	1621.07
541.959	1640.11
542.32	1652.28
542.681	1667.53
543.041	1673.94
543.402	1677.81
543.762	1694.58
544.123	1691.43
544.483	1706.46
544.844	1721.41
545.204	1719.36
545.564	1728.39
545.924	1735.89
546.284	1739.62
546.644	1742.39
547.004	1748.47
547.364	1757.4
547.724	1767.21
548.084	1775.06
548.444	1792.53
548.804	1797.42
549.164	1794.58
549.523	1804.06
549.883	1806.39
550.242	1813.2
550.602	1825.26
550.961	1832.73
551.321	1829.31
551.68	1846.29
552.04	1850.44
552.399	1872.44
552.758	1874.1
553.117	1873
553.476	1897
553.835	1907.81
554.194	1922.34
554.553	1908.48
554.912	1911.87
555.271	1929.66
555.63	1937.33
555.989	1953.18
556.347	1961.08
556.706	1966.55
557.065	1970.22
557.423	1977.84
557.782	1991.39
558.14	1994.99
558.499	2013.97
558.857	2007.35
559.215	2010.6
559.573	2023.63
559.932	2038.18
560.29	2054.28
560.648	2064.49
561.006	2071.64
561.364	2080.76
561.722	2090.8
562.08	2105.61
562.438	2095.04
562.795	2119.54
563.153	2127.66
563.511	2130.65
563.868	2140.33
564.226	2157.18
564.583	2167.21
564.941	2165.41
565.298	2182.62
565.656	2185.58
566.013	2190.52
566.37	2201.03
566.727	2220.75
567.085	2249.79
567.442	2269.29
567.799	2280.85
568.156	2293.35
568.513	2312.54
568.87	2337.01
569.226	2379.06
569.583	2423.51
569.94	2438.55
570.297	2459.28
570.653	2460.85
571.01	2479.74
571.366	2519.95
571.723	2554.14
572.079	2546.96
572.436	2547.83
572.792	2543.21
573.148	2573.38
573.505	2611.74
573.861	2676.81
574.217	2705.94
574.573	2709.72
574.929	2699.47
575.285	2694.83
575.641	2720.27
575.997	2747.02
576.352	2766.88
576.708	2780.89
577.064	2805.12
577.42	2860.08
577.775	2922.4
578.131	2956.88
578.486	2943.56
578.842	2881.69
579.197	2884.39
579.552	2910.59
579.908	2963.23
580.263	3013.72
580.618	3003.75
580.973	3022.92
581.328	3121
581.683	3248.34
582.038	3317.78
582.393	3238.29
582.748	3129.26
583.103	3023.4
583.458	2958.89
583.812	2961.88
584.167	3018.99
584.522	3072.13
584.876	3129.52
585.231	3155.5
585.585	3155.69
585.939	3120.65
586.294	3100.98
586.648	3092.24
587.002	3076.97
587.356	3115.28
587.711	3187.07
588.065	3203.69
588.419	3228.55
588.773	3211.55
589.127	3163.39
589.48	3141.39
589.834	3082.4
590.188	3087.54
590.542	3096.33
590.895	3077.44
591.249	3111.83
591.603	3109.31
591.956	3110.82
592.309	3135.62
592.663	3179.06
593.016	3264.36
593.369	3314.74
593.723	3292.48
594.076	3288.71
594.429	3286.56
594.782	3316.81
595.135	3373.49
595.488	3382.75
595.841	3366.25
596.194	3320.55
596.547	3292.24
596.899	3285.34
597.252	3290.88
597.605	3305.31
597.957	3311.13
598.31	3321.08
598.662	3356.79
599.015	3374.79
599.367	3400.36
599.719	3400.84
600.072	3398.58
600.424	3413.87
600.776	3462.68
601.128	3487.9
601.48	3482.82
601.832	3509.03
602.184	3506.3
602.536	3525.11
602.888	3556.98
603.24	3608.72
603.592	3649.1
603.943	3636
604.295	3608.54
604.646	3564.3
604.998	3572.59
605.349	3593.34
605.701	3604.87
606.052	3627.16
606.404	3628.81
606.755	3634.08
607.106	3632.8
607.457	3623.95
607.808	3643.59
608.159	3637.42
608.51	3636.47
608.861	3634.65
609.212	3615.21
609.563	3660.86
609.914	3711.18
610.265	3716.41
610.615	3754.23
610.966	3764.5
611.316	3796.1
611.667	3822.72
612.017	3848.91
612.368	3806.28
612.718	3845.46
613.068	3835.57
613.419	3861.99
613.769	3869.05
614.119	3877.48
614.469	3904.12
614.819	3874.42
615.169	3854.68
615.519	3885.96
615.869	3893.28
616.219	3896.43
616.568	3876.08
616.918	3859.31
617.268	3886.73
617.617	3905.97
617.967	3920.31
618.316	3905.57
618.666	3909.23
619.015	3905.92
619.364	3907.02
619.714	3974.85
620.063	3982.53
620.412	3990.22
620.761	3998.92
621.11	3983.03
621.459	3946.53
621.808	3965.21
622.157	4016.63
622.506	4038.62
622.855	4083.58
623.203	4098.77
623.552	4094.2
623.901	4123.23
624.249	4121.57
624.598	4133.14
624.946	4118.11
625.295	4093.56
625.643	4096.31
625.991	4149.19
626.34	4137.91
626.688	4134.52
627.036	4150.33
627.384	4165.03
627.732	4190.44
628.08	4195.27
628.428	4182.62
628.776	4195.54
629.124	4224.21
629.471	4252.35
629.819	4266.75
630.167	4278.58
630.514	4287.58
630.862	4267.44
631.209	4276.64
631.557	4275.48
631.904	4296.32
632.251	4323.77
632.599	4306.11
632.946	4307.9
633.293	4349.59
633.64	4354.75
633.987	4384.46
634.334	4375.18
634.681	4385.46
635.028	4407.05
635.375	4429.72
635.722	4458.64
636.068	4470.93
636.415	4484.68
636.762	4498.04
637.108	4504.6
637.455	4487.97
637.801	4496.51
638.147	4542.35
638.494	4565.98
638.84	4604.24
639.186	4569.01
639.532	4561.78
639.878	4586.25
640.225	4606.71
640.571	4615.65
640.916	4611.22
641.262	4619.75
641.608	4626.67
641.954	4639.91
642.3	4642.13
642.645	4655.47
642.991	4685.52
643.337	4710.89
643.682	4737.3
644.028	4753.48
644.373	4754.65
644.718	4761.3
645.064	4752.96
645.409	4762.91
645.754	4779.14
646.099	4807.31
646.444	4812.18
646.789	4834.26
647.134	4843.49
647.479	4863.15
647.824	4864.54
648.169	4873.14
648.513	4917.55
648.858	4920.19
649.203	4943.12
649.547	4941.98
649.892	4942.24
650.236	4979.83
650.581	4995.63
650.925	5009.92
651.269	5014.28
651.613	5055.69
651.958	5068.21
652.302	5072.64
652.646	5052.72
652.99	5065.25
653.334	5078
653.678	5067.59
654.022	5088.65
654.365	5076.38
654.709	5091.51
655.053	5118.98
655.396	5230.97
655.74	6698.86
656.083	9465.32
656.427	11518.07
656.77	11944.07
657.114	9368.54
657.457	7086.83
657.8	5930.22
658.143	5474.56
658.486	5337.87
658.83	5310.45
659.173	5259.84
659.516	5257.19
659.858	5263.91
660.201	5255.9
660.544	5246.61
660.887	5250.27
661.229	5266.32
661.572	5267.49
661.915	5294.2
662.257	5280.19
662.6	5332.09
662.942	5321.11
663.284	5302.54
663.627	5336.63
663.969	5349.43
664.311	5378.75
664.653	5359.39
664.995	5365.41
665.337	5379.84
665.679	5378.26
666.021	5382.86
666.363	5352.8
666.705	5390.63
667.046	5398.88
667.388	5377.12
667.73	5391.12
668.071	5421.57
668.413	5445.25
668.754	5429.94
669.096	5396.44
669.437	5429.74
669.778	5424.27
670.119	5430.9
670.461	5440.95
670.802	5449.91
671.143	5456.16
671.484	5460.28
671.825	5468.65
672.165	5500.74
672.506	5527.3
672.847	5535.58
673.188	5545.2
673.528	5534.78
673.869	5524.47
674.21	5548.23
674.55	5543.14
674.89	5534.6
675.231	5559.81
675.571	5562.15
675.911	5558.63
676.252	5590.36
676.592	5614.59
676.932	5589.02
677.272	5571.81
677.612	5598.64
677.952	5592.92
678.292	5609.77
678.631	5610.89
678.971	5619.34
679.311	5638.65
679.651	5641.69
679.99	5670.13
680.33	5670.89
680.669	5678.61
681.009	5651.93
681.348	5696.46
681.687	5694.48
682.026	5686.76
682.366	5676.56
682.705	5708.08
683.044	5718.06
683.383	5722.1
683.722	5742.92
684.061	5710.7
684.4	5776.64
684.738	5793.03
685.077	5801.75
685.416	5818.32
685.754	5852.5
686.093	5827.33
686.431	5840.02
686.77	5816.27
687.108	5839.5
687.447	5800.73
687.785	5834.79
688.123	5811.31
688.461	5845.45
688.799	5827.07
689.137	5816.91
689.475	5816.87
689.813	5799.67
690.151	5835.21
690.489	5844.26
690.827	5886.28
691.164	5893.97
691.502	5860.29
691.84	5869.49
692.177	5937.58
692.515	5967.58
692.852	5955.56
693.189	5971.22
693.527	5964.22
693.864	5964.22
694.201	5987.25
694.538	5974.61
694.875	5961.68
695.212	5925.91
695.549	5941.54
695.886	5945.78
696.223	5931.63
696.56	5941.07
696.897	5945.46
697.233	5958.31
697.57	5979.58
697.906	6027.52
698.243	6033.58
698.579	6001.23
698.916	5992.2
699.252	5993.39
699.588	6006.04
699.924	6029.21
700.261	6011.97
700.597	6008.68
700.933	5991.55
701.269	6001.56
701.605	6004.84
701.941	6006.41
702.276	6009.22
702.612	6021.26
702.948	6055.6
703.283	6084.29
703.619	6093.07
703.954	6086.83
704.29	6051.38
704.625	6081.62
704.961	6051.75
705.296	6086.45
705.631	6072.35
705.966	6053.83
706.301	6088.93
706.637	6096.76
706.972	6175.38
707.306	6167.69
707.641	6191.92
707.976	6179.75
708.311	6201.93
708.646	6207.57
708.98	6153.67
709.315	6141.67
709.649	6163.47
709.984	6190.45
710.318	6130.48
710.653	6166.19
710.987	6167.15
711.321	6160.23
711.655	6132.68
711.989	6118.87
712.324	6151.55
712.658	6154.9
712.992	6163.34
713.325	6169.18
713.659	6207.31
713.993	6215
714.327	6189.49
714.66	6213.47
714.994	6209.83
715.328	6225.33
715.661	6230.84
715.994	6234.01
716.328	6173.58
716.661	6186.05
716.994	6229.11
717.328	6184.33
717.661	6156.09
717.994	6184.85
718.327	6220.83
718.66	6205.1
718.993	6201.44
719.325	6206.8
719.658	6186.7
719.991	6230.84
720.324	6266.17
720.656	6198.91
720.989	6177.74
721.321	6208.45
721.654	6237.15
721.986	6211.77
722.318	6207.71
722.651	6242.36
722.983	6204.8
723.315	6209.71
723.647	6207.42
723.979	6205.05
724.311	6210.23
724.643	6186.12
724.975	6192.18
725.307	6225.64
725.638	6266.77
725.97	6251.76
726.302	6318.03
726.633	6279.8
726.965	6293.53
727.296	6273.09
727.628	6233.84
727.959	6210.97
728.29	6241.58
728.621	6245.19
728.952	6275.99
729.284	6221.86
729.615	6212.45
729.945	6193.93
730.276	6244.48
730.607	6250.39
730.938	6239.17
731.269	6275.08
731.599	6268.04
731.93	6265.76
732.261	6204.71
732.591	6218.18
732.922	6209.62
733.252	6153.48
733.582	6142.83
733.912	6188.19
734.243	6181.37
734.573	6172.26
734.903	6230.58
735.233	6185.93
735.563	6147.72
735.893	6172.94
736.223	6187.22
736.552	6207.37
736.882	6188.15
737.212	6148.83
737.541	6132.28
737.871	6106.36
738.2	6081.01
738.53	6048.96
738.859	6037.75
739.188	6057.7
739.518	6077.07
739.847	6125.42
740.176	6123.27
740.505	6136.45
740.834	6127.03
741.163	6090.72
741.492	6029.92
741.821	5967.41
742.15	5939.11
742.478	5969.11
742.807	5961.25
743.136	5987.61
743.464	5972.94
743.793	5909.88
744.121	5892.58
744.449	5868.53
744.778	5907.75
745.106	5965.12
745.434	5944.75
745.762	5875.83
746.09	5825.04
746.418	5819.64
746.746	5851.94
747.074	5831.62
747.402	5814.94
747.73	5790.19
748.057	5788.8
748.385	5791.15
748.712	5773.44
749.04	5727.32
749.367	5753.7
749.695	5758.79
750.022	5787.13
750.349	5753.35
750.677	5755.58
751.004	5741.52
751.331	5731.39
751.658	5776.94
751.985	5751.51
752.312	5665.93
752.639	5608.64
752.966	5632.51
753.292	5588.49
753.619	5632.94
753.946	5648.72
754.272	5644.87
754.599	5652.12
754.925	5657.47
755.251	5639.49
755.578	5649.45
755.904	5607.42
756.23	5589.58
756.556	5607.38
756.882	5632.32
757.208	5573.03
757.534	5553.93
757.86	5551.54
758.186	5567.14
758.512	5521.09
758.838	5532.55
759.163	5525.31
759.489	5503.87
759.814	5413.49
760.14	5384.33
760.465	5418.71
760.791	5371.71
761.116	5332.56
761.441	5373.08
761.766	5414.35
762.092	5359.34
762.417	5356.52
762.742	5332.56
763.066	5274.19
763.391	5266.02
763.716	5274.57
764.041	5305
764.366	5325.56
764.69	5269.72
765.015	5285.49
765.339	5313.64
765.664	5349.43
765.988	5354.81
766.312	5294.41
766.637	5249.81
766.961	5195.54
767.285	5218.67
767.609	5231.61
767.933	5197.44
768.257	5185.05
768.581	5130.71
768.905	5172.46
769.229	5195.25
769.552	5221.05
769.876	5225.46
770.2	5176.45
770.523	5147.9
770.847	5093.65
771.17	5059.62
771.493	5073.35
771.817	5129.06
772.14	5072.79
772.463	5018.54
772.786	4978.8
773.109	4945.81
773.432	5030.53
773.755	5027.57
774.078	4986.72
774.401	4938.17
774.724	4887.19
775.046	4899.95
775.369	4933.74
775.692	4913.21
776.014	4868.8
776.336	4827.22
776.659	4811.93
776.981	4830.97
777.303	4838.54
777.626	4805.23
777.948	4764.93
778.27	4769.78
778.592	4790.87
778.914	4815.69
779.236	4808.77
779.557	4790.36
779.879	4818.24
780.201	4823.25
780.523	4830.52
780.844	4801.94
781.166	4813.15
781.487	4842.33
781.809	4804.24
782.13	4808.73
782.451	4815.99
782.772	4837.76
783.094	4847.15
783.415	4887.73
783.736	4907.89
784.057	4909.93
784.378	4907
784.698	4887.44
785.019	4914.65
785.34	4843.66
785.661	4870.86
785.981	4878.53
786.302	4917.25
786.622	4933.92
786.943	4972.38
787.263	4891.05
787.583	4895
787.903	4922.45
788.224	4909.33
788.544	4940.69
788.864	4930.96
789.184	4989.04
789.504	4997.22
789.824	4998.21
790.143	5015.1
790.463	4994.72
790.783	4947.54
791.102	4942.91
791.422	4952.29
791.741	4909.26
792.061	4926.45
792.38	5001.09
792.699	4982.25
793.019	5010.1
793.338	5008.19
793.657	4970.21
793.976	4969.65
794.295	5002.07
794.614	5000.03
794.933	4993.73
795.252	5000.91
795.57	4969.49
795.889	4984.98
796.208	5012.43
796.526	4974.51
796.845	4966.11
797.163	4925.58
797.482	4914.83
797.8	4920.87
798.118	4914.37
798.436	4917.26
798.754	4917.56
799.073	4908.06
799.391	4866.24
799.708	4826.92
800.026	4846.57
800.344	4873.48
800.662	4863.32
800.98	4836.48
801.297	4831.9
801.615	4842.68
801.932	4867.96
802.25	4845.34
802.567	4834.79
802.884	4793.89
803.202	4752.91
803.519	4719.42
803.836	4741.2
804.153	4742.49
804.47	4764.34
804.787	4690.77
805.104	4671.51
805.421	4702.16
805.737	4656.35
806.054	4631.06
806.371	4644.46
806.687	4696.85
807.004	4681.11
807.32	4642.43
807.637	4603.54
807.953	4586.01
808.269	4598.32
808.585	4612.57
808.902	4570.65
809.218	4565.49
809.534	4576.8
809.85	4546.59
810.165	4515.35
810.481	4542.71
810.797	4490.94
811.113	4491.63
811.428	4498.22
811.744	4499.88
812.059	4501.43
812.375	4497.46
812.69	4476.08
813.006	4462.68
813.321	4435.81
813.636	4407.87
813.951	4387.14
814.266	4372.99
814.581	4367.68
814.896	4373.72
815.211	4363.62
815.526	4379.62
815.841	4342.03
816.155	4361.56
816.47	4349.57
816.784	4380.78
817.099	4363.84
817.413	4323.77
817.728	4311.46
818.042	4300.71
818.356	4314.18
818.67	4310.6
818.985	4304.75
819.299	4272.52
819.613	4260.11
819.926	4201.53
820.24	4212.43
820.554	4202.2
820.868	4218.61
821.182	4169.6
821.495	4154.97
821.809	4096.17
822.122	4047.6
822.436	4049.8
822.749	4077.84
823.062	4100.64
823.376	4114.11
823.689	4079.18
824.002	4050.95
824.315	4022.81
824.628	4020.54
824.941	4027.71
825.254	4000.19
825.566	3995.39
825.879	4024.9
826.192	3998.74
826.504	3978.34
826.817	3969.54
827.129	4012.36
827.442	3996.19
827.754	4008.26
828.066	4008.05
828.379	3947.49
828.691	3913.9
829.003	3883.97
829.315	3894.85
829.627	3928.77
829.939	3907.21
830.251	3869.5
830.562	3826.33
830.874	3843.48
831.186	3824.37
831.497	3845.92
831.809	3838.84
832.12	3806.77
832.432	3786.24
832.743	3799.25
833.054	3778.25
833.365	3770.23
833.676	3778.12
833.988	3782.35
834.299	3765.34
834.61	3751.97
834.92	3742.54
835.231	3735.38
835.542	3728.46
835.853	3708.65
836.163	3730.65
836.474	3711.13
836.784	3708.66
837.095	3647.36
837.405	3593.04
837.715	3600.96
838.026	3634.62
838.336	3639.17
838.646	3634.43
838.956	3569.79
839.266	3538.13
839.576	3527.9
839.886	3526.36
840.195	3546.72
840.505	3527.44
840.815	3511.76
841.124	3485.38
841.434	3472.1
841.743	3462.98
842.053	3430.69
842.362	3442.15
842.671	3447.32
842.981	3467.55
843.29	3431.75
843.599	3422.48
843.908	3412.87
844.217	3370.76
844.526	3360.26
844.835	3356.32
845.143	3351.05
845.452	3328.92
845.761	3322.12
846.069	3279.48
846.378	3273.02
846.686	3234.67
846.995	3252.82
847.303	3270.21
847.611	3289.46
847.919	3252.56
848.227	3236.28
848.535	3207.11
848.843	3193.08
849.151	3193.34
849.459	3243.59
849.767	3241.56
850.075	3228.35
850.382	3195.09
850.69	3184.98
850.998	3129.46
851.305	3095.94
851.612	3114.72
851.92	3133.91
852.227	3151.89
852.534	3165.11
852.841	3147.36
853.148	3112.85
853.455	3109.6
853.762	3082.36
854.069	3069.33
854.376	3071.4
854.683	3078.31
854.99	3087.53
855.296	3066.69
855.603	3014.87
855.909	2979.19
856.216	2936.67
856.522	2938.73
856.828	2959.15
857.135	2968.08
857.441	2949.03
857.747	2915.56
858.053	2898.52
858.359	2851.36
858.665	2879.96
858.971	2877.26
859.276	2856.78
859.582	2826.9
859.888	2819.54
860.193	2809.1
860.499	2785.23
860.804	2791.28
861.11	2780.2
861.415	2788.25
861.72	2799.71
862.026	2786.98
862.331	2769.42
862.636	2750.3
862.941	2721.46
863.246	2703.48
863.551	2702.97
863.855	2717.13
864.16	2729.5
864.465	2702.3
864.769	2680.71
865.074	2657.98
865.378	2630.81
865.683	2589.16
865.987	2595.47
866.291	2577.21
866.596	2583.41
866.9	2577.27
867.204	2562.4
867.508	2536.94
867.812	2539.21
868.116	2546.6
868.42	2549.82
868.723	2536.85
869.027	2522.09
869.331	2504.6
869.634	2491.2
869.938	2448.56
870.241	2445.68
870.544	2453.38
870.848	2460.46
871.151	2475.43
871.454	2466.85
871.757	2443.05
872.06	2423.06
872.363	2387.35
872.666	2375.22
872.969	2365.08
873.272	2367.92
873.574	2378.78
873.877	2373.4
874.18	2358.65
874.482	2329.92
874.785	2310.95
875.087	2284.54
875.389	2286.33
875.692	2284.31
875.994	2269.32
876.296	2258.71
876.598	2258.44
876.9	2247.01
877.202	2235.28
877.504	2217.64
877.805	2195.96
878.107	2192.03
878.409	2182.78
878.71	2199.2
879.012	2200.37
879.313	2176.81
879.615	2189.31
879.916	2180.64
880.217	2149.39
880.518	2141.25
880.82	2143.2
881.121	2132.99
881.422	2138.61
881.723	2121.62
882.023	2109.38
882.324	2096.02
882.625	2073.26
882.926	2072.29
883.226	2084.53
883.527	2073.47
883.827	2073.48
884.128	2065.78
884.428	2067.5
884.728	2035.35
885.028	2014.05
885.328	1992.01
885.629	1977.28
885.929	1979.72
886.228	1984.44
886.528	1976.11
886.828	1964.53
887.128	1948.01
887.427	1939.06
887.727	1928.8
888.027	1906.55
888.326	1890.31
888.625	1894.17
888.925	1887.41
889.224	1886.86
889.523	1855.59
889.822	1849.57
890.121	1853.57
890.42	1845.94
890.719	1830.4
891.018	1812.28
891.317	1815.06
891.616	1818.89
891.914	1815.31
892.213	1812.73
892.512	1802.24
892.81	1789.36
893.108	1781.5
893.407	1776.19
893.705	1786.69
894.003	1788.98
894.301	1781.74
894.599	1787.68
894.897	1788.34
895.195	1778.76
895.493	1758.31
895.791	1760.66
896.089	1748.94
896.386	1747.26
896.684	1768.39
896.981	1775.16
897.279	1767.95
897.576	1768.21
897.874	1749.89
898.171	1753.14
898.468	1743.05
898.765	1732.26
899.062	1745.88
899.359	1765.99
899.656	1769.63
899.953	1760.72
900.25	1755.61
900.547	1740.41
900.843	1723.36
901.14	1724.26
901.436	1742.67
901.733	1766.7
902.029	1779.43
902.325	1776.96
902.622	1757.62
902.918	1756.11
903.214	1746.39
903.51	1709.69
903.806	1701.79
904.102	1706.94
904.398	1712.34
904.694	1723
904.989	1745.81
905.285	1735.06
905.581	1728.01
905.876	1737.63
906.171	1725.65
906.467	1714.77
906.762	1712.51
907.057	1701.8
907.353	1702.12
907.648	1703.79
907.943	1710.36
908.238	1704.79
908.533	1686.97
908.827	1678.5
909.122	1660.27
909.417	1649.24
909.711	1649.52
910.006	1655.48
910.301	1660.35
910.595	1683
910.889	1698.7
911.184	1684.74
911.478	1674.14
911.772	1669.67
912.066	1652.09
912.36	1643.71
912.654	1648.53
912.948	1653.31
913.242	1669.24
913.536	1659.66
913.829	1660.77
914.123	1635.86
914.416	1600.73
914.71	1583.26
915.003	1582.25
915.297	1576.61
915.59	1570.46
915.883	1570.06
916.176	1570.73
916.469	1563.71
916.762	1555.46
917.055	1530.34
917.348	1518.01
917.641	1519.83
917.934	1521.31
918.226	1522.33
918.519	1521.59
918.811	1521.17
919.104	1522.49
919.396	1510.49
919.689	1495.68
919.981	1483.82
920.273	1465.4
920.565	1455.37
920.857	1442.84
921.149	1440.01
921.441	1444.2
921.733	1454.29
922.025	1448.75
922.316	1440.24
922.608	1432.77
922.9	1414.71
923.191	1403.3
923.483	1400.66
923.774	1385.37
924.065	1387.04
924.357	1390.27
924.648	1385.24
924.939	1381.37
925.23	1367.3
925.521	1358.96
925.812	1345.83
926.102	1325.6
926.393	1316.22
926.684	1312.45
926.975	1311.97
927.265	1307.34
927.556	1305.82
927.846	1295.21
928.136	1282.58
928.427	1273.32
928.717	1262.33
929.007	1253.67
929.297	1242.84
929.587	1242.63
929.877	1244.31
930.167	1253.14
930.457	1251.84
930.746	1237.94
931.036	1229.29
931.325	1212.16
931.615	1204.56
931.904	1202.43
932.194	1190.71
932.483	1191.53
932.772	1192.43
933.062	1191.15
933.351	1185.61
933.64	1167.7
933.929	1164.03
934.218	1150.09
934.506	1143.58
934.795	1139.99
935.084	1139.29
935.372	1134.46
935.661	1129.46
935.949	1121.11
936.238	1114.1
936.526	1102.92
936.815	1100.3
937.103	1093.95
937.391	1082.36
937.679	1073.99
937.967	1069.73
938.255	1064.3
938.543	1058.72
938.831	1053.5
939.118	1054.7
939.406	1049.57
939.693	1040.67
939.981	1031.47
940.268	1027.79
940.556	1018
940.843	1015.35
941.13	1012.48
941.418	1008.86
941.705	1004.12
941.992	998.17
942.279	993.4
942.566	983.28
942.852	975.09
943.139	965.04
943.426	956.29
943.712	954.12
943.999	948.27
944.285	950.21
944.572	948.65
944.858	951.6
945.144	954.27
945.431	944.73
945.717	936.43
946.003	929.79
946.289	921.7
946.575	909.42
946.861	897.15
947.146	892.42
947.432	888.66
947.718	883.64
948.003	878.99
948.289	880.25
948.574	873.93
948.86	870.87
949.145	868.01
949.43	862.01
949.715	856.18
950	847.05
950.285	840.5
950.57	835.88
950.855	831.87
951.14	831.1
951.425	829.25
951.709	824.85
951.994	824.15
952.278	822.43
952.563	814.61
952.847	808.37
953.132	803.07
953.416	799.22
953.7	795.84
953.984	789.69
954.268	786.36
954.552	786.8
954.836	784.67
955.12	775.92
955.404	772.96
955.687	763.45
955.971	755.09
956.254	752.01
956.538	748.5
956.821	747.26
957.105	749.65
957.388	750.89
957.671	746.32
957.954	740.8
958.237	741.26
958.52	733.71
958.803	729.94
959.086	723.37
959.369	717.81
959.652	710.63
959.934	704.49
960.217	699.64
960.499	697.97
960.782	695.57
961.064	692.6
961.346	689.98
961.629	685.02
961.911	681.96
962.193	678.07
962.475	671.72
962.757	667.65
963.039	667.91
963.32	668.28
963.602	666.49
963.884	663.91
964.165	659.48
964.447	656.5
964.728	651.17
965.01	647.43
965.291	641.81
965.572	633.63
965.853	631.57
966.134	625.71
966.415	625.85
966.696	625.84
966.977	623.77
967.258	621.66
967.539	620.16
967.819	620.26
968.1	613.69
968.38	611.96
968.661	603.67
968.941	601.58
969.222	596.81
969.502	594.93
969.782	595.12
970.062	592.95
970.342	590.55
970.622	590.06
970.902	587.12
971.182	584.21
971.462	578.42
971.741	576.15
972.021	571.05
972.3	568.64
972.58	562.56
972.859	565.32
973.138	564.66
973.418	562.03
973.697	560.09
973.976	561.75
974.255	557.74
974.534	555.34
974.813	550.99
975.092	546.03
975.37	541.8
975.649	537.57
975.928	536.87
976.206	534.87
976.485	532.18
976.763	530.2
977.041	527.91
977.32	523.85
977.598	521.26
977.876	518.71
978.154	516.91
978.432	514.46
978.71	513.19
978.988	508.94
979.265	507.55
979.543	504.82
979.821	501.25
980.098	502.29
980.376	502.75
980.653	499.57
980.93	497.07
981.208	497
981.485	494.47
981.762	493.32
982.039	490.04
982.316	485.41
982.593	484.51
982.87	481.26
983.146	478.99
983.423	477.48
983.7	476
983.976	472.1
984.253	473.1
984.529	472.33
984.805	469.25
985.082	467.21
985.358	466.49
985.634	462.88
985.91	465
986.186	460.81
986.462	458.41
986.738	455.26
987.013	453.4
987.289	454.09
987.565	452.46
987.84	449.14
988.116	448.36
988.391	447.77
988.666	445.9
988.942	443.09
989.217	442.21
989.492	439.48
989.767	440.06
990.042	436.05
990.317	435.34
990.592	436.45
990.866	436.19
991.141	433.29
991.416	431.48
991.69	429.34
991.964	426.92
992.239	425.62
992.513	425.51
992.787	424.56
993.062	421.71
993.336	421.15
993.61	420.81
993.884	419.56
994.158	417.8
994.431	418.87
994.705	415.2
994.979	414.11
995.252	411.74
995.526	411.33
995.799	409.7
996.073	407.81
996.346	406.63
996.619	404.51
996.892	405.03
997.165	402.84
997.438	403.96
997.711	403.4
997.984	402.95
998.257	399.68
998.53	401.58
998.802	399.55
999.075	398.82
999.347	395.78
999.62	396.42
999.892	394.24
1000.165	390.53
1000.437	393.59
1000.709	392.02
1000.981	392.26
1001.253	390.22
1001.525	389.61
1001.797	390.41
1002.068	388.86
1002.34	387.24
1002.612	387.72
1002.883	385.41
1003.155	384.53
1003.426	382.87
1003.698	382.34
1003.969	381.64
1004.24	381.81
1004.511	380.12
1004.782	378.33
1005.053	379.14
1005.324	377.83
1005.595	378.79
1005.866	377.63
1006.136	374.12
1006.407	375.42
1006.678	375.44
1006.948	375.7
1007.218	373.96
1007.489	373.14
1007.759	371.64
1008.029	371.97
1008.299	372.65
1008.569	372.54
1008.839	371.31
1009.109	369.63
1009.379	367.84
1009.649	368.99
1009.918	367.4
1010.188	366.06
1010.458	368.19
1010.727	367.84
1010.996	365.14
1011.266	364.4
1011.535	364.3
1011.804	364.35
1012.073	363.45
1012.342	364.68
1012.611	362.11
1012.88	362.79
1013.149	363.05
1013.417	360.14
1013.686	359.95
1013.955	362.42
1014.223	362.22
1014.492	357.4
1014.76	359.56
1015.028	358.35
1015.296	359.78
1015.565	360.03
1015.833	357.79
1016.101	358.69
1016.368	358.77
1016.636	357.79
1016.904	355.94
1017.172	356.4
1017.439	356.34
1017.707	356.54
1017.974	356.71
1018.242	355.53
1018.509	355.2
1018.776	354.86
1019.044	353.77
1019.311	354.02
1019.578	353.25
1019.845	353.78
1020.112	353.2
1020.378	353.2
1020.645	353.2
