Data from 190627_Kr_43K_no_film_FLMS138901_13-49-21-140.txt Node
Date: Thu Jun 27 13:49:21 EDT 2019
User: pSAM
Spectrometer: FLMS13890
Trigger mode: 0
Integration Time (sec): 5.000000E-3
Scans to average: 1000
Electric dark correction enabled: true
Nonlinearity correction enabled: false
Boxcar width: 0
XAxis mode: Wavelengths
Number of Pixels in Spectrum: 2048
>>>>>Begin Spectral Data<<<<<
342.097	-58.82
342.483	-58.82
342.868	-58.82
343.254	-99.18
343.639	-103.78
344.025	-100.34
344.41	-98.21
344.796	-92.56
345.181	-80.74
345.567	-66.52
345.952	-53.93
346.337	-37.09
346.722	-20.16
347.107	-1.74
347.493	18.8
347.878	38.94
348.263	58.47
348.648	79.14
349.033	99.89
349.418	118.46
349.802	137.59
350.187	155.78
350.572	176.38
350.957	233.32
351.342	355.07
351.726	379.27
352.111	396.43
352.495	408.49
352.88	422.47
353.264	434.88
353.649	450.06
354.033	459.08
354.418	471.13
354.802	479.7
355.186	485.59
355.57	494.11
355.955	502.6
356.339	507.88
356.723	511.78
357.107	514.42
357.491	549.24
357.875	523.67
358.259	528
358.643	527.53
359.026	531.05
359.41	530.82
359.794	530.94
360.178	532.62
360.561	533.6
360.945	531.32
361.329	535.4
361.712	533.33
362.096	530.49
362.479	533.74
362.862	536.66
363.246	532.29
363.629	532.37
364.012	533.62
364.396	534.11
364.779	531.58
365.162	533.59
365.545	535.01
365.928	533.01
366.311	533.55
366.694	535.98
367.077	539.92
367.46	539.9
367.843	541.46
368.226	542.47
368.608	542.45
368.991	546.57
369.374	544.68
369.756	545.02
370.139	546.53
370.521	546.09
370.904	546.85
371.286	547.81
371.669	549.5
372.051	551.79
372.433	555.98
372.816	555.64
373.198	556.32
373.58	560.91
373.962	559.82
374.344	564.88
374.726	567.26
375.108	567.77
375.49	571.37
375.872	570.4
376.254	571.29
376.636	570.98
377.018	570.56
377.399	573.99
377.781	576.57
378.163	579.15
378.544	580.35
378.926	587.53
379.307	593.95
379.689	597.84
380.07	598.81
380.452	601.04
380.833	604.05
381.214	604.48
381.596	609.92
381.977	616.01
382.358	621.76
382.739	625.06
383.12	628.95
383.501	628.42
383.882	630.28
384.263	629.43
384.644	633.64
385.025	637.54
385.406	636.77
385.787	641.82
386.167	643.18
386.548	644.84
386.929	651.95
387.309	659.05
387.69	669.05
388.07	677.37
388.451	679.08
388.831	685.49
389.211	680.4
389.592	673.38
389.972	671.97
390.352	676.72
390.733	679.59
391.113	680.28
391.493	683.01
391.873	693.73
392.253	698.38
392.633	712.79
393.013	718.77
393.393	723.04
393.772	720.18
394.152	725.36
394.532	725.08
394.912	729.14
395.291	724.17
395.671	729.63
396.05	723.58
396.43	725.78
396.809	726.38
397.189	736.69
397.568	743.03
397.948	745.64
398.327	758.74
398.706	764.69
399.085	766.3
399.465	765.1
399.844	759.67
400.223	753.19
400.602	758.43
400.981	755.59
401.36	756.6
401.739	759.22
402.117	764.11
402.496	757.56
402.875	761.28
403.254	769.44
403.632	770.2
404.011	776.97
404.39	787.64
404.768	793.68
405.147	803.36
405.525	811.77
405.903	816.64
406.282	818.22
406.66	814.31
407.038	807
407.417	803.17
407.795	802.28
408.173	806.01
408.551	809.5
408.929	813.07
409.307	817.16
409.685	827.04
410.063	826.5
410.441	827.7
410.818	833.46
411.196	835.09
411.574	845.58
411.952	848.15
412.329	859.33
412.707	878.78
413.084	884.33
413.462	889.05
413.839	893.9
414.217	879.69
414.594	881.44
414.971	887.09
415.349	889.77
415.726	890.88
416.103	882.55
416.48	888.07
416.857	893.51
417.234	904.5
417.611	908.67
417.988	906.75
418.365	899.33
418.742	903.63
419.119	912.24
419.495	909.8
419.872	914.05
420.249	936.94
420.625	944.02
421.002	958.89
421.379	966.07
421.755	985.54
422.131	997.08
422.508	999.93
422.884	1003.98
423.26	1012.26
423.637	1023.18
424.013	1002.12
424.389	996.06
424.765	988.54
425.141	992.79
425.517	988.88
425.893	984.6
426.269	984.2
426.645	989.17
427.021	1017.27
427.397	1029.6
427.772	1042.52
428.148	1041.76
428.524	1041.98
428.899	1034.66
429.275	1046.58
429.651	1061.55
430.026	1079.64
430.401	1091.15
430.777	1088.78
431.152	1087.01
431.527	1081.66
431.903	1076.77
432.278	1075.27
432.653	1072.03
433.028	1082.61
433.403	1107.43
433.778	1137.96
434.153	1140.44
434.528	1134.1
434.903	1129.24
435.278	1140.9
435.653	1141.23
436.027	1147.68
436.402	1158.21
436.777	1166.63
437.151	1168.6
437.526	1178.65
437.9	1183.52
438.275	1200.27
438.649	1197.51
439.023	1206.72
439.398	1208.09
439.772	1207.59
440.146	1210.74
440.52	1225.53
440.895	1246.45
441.269	1281.36
441.643	1302.78
442.017	1300.29
442.391	1296.02
442.765	1293.67
443.138	1283.24
443.512	1301.52
443.886	1305.42
444.26	1310.66
444.633	1319.7
445.007	1316.53
445.38	1321.03
445.754	1326.58
446.127	1334.52
446.501	1333.23
446.874	1327.84
447.248	1326.82
447.621	1337.27
447.994	1330.4
448.367	1339.33
448.741	1342.96
449.114	1334.55
449.487	1351.29
449.86	1356.45
450.233	1354.93
450.606	1352.78
450.978	1351.19
451.351	1370.08
451.724	1355.42
452.097	1354.31
452.469	1367.36
452.842	1365.13
453.215	1371.18
453.587	1373.35
453.96	1378.84
454.332	1378.33
454.704	1396.46
455.077	1402.23
455.449	1415.29
455.821	1414.74
456.194	1430.78
456.566	1433.79
456.938	1449.52
457.31	1462.39
457.682	1490.06
458.054	1497.68
458.426	1512.62
458.798	1526.47
459.17	1539.57
459.541	1531.35
459.913	1521.95
460.285	1521.06
460.656	1524.5
461.028	1517.95
461.399	1536.15
461.771	1530.19
462.142	1543.05
462.514	1567.15
462.885	1583.37
463.256	1626.09
463.628	1645.29
463.999	1669.23
464.37	1704.25
464.741	1715.64
465.112	1700.6
465.483	1712.24
465.854	1719.33
466.225	1712.43
466.596	1708.68
466.967	1729.51
467.338	1727.29
467.708	1759.51
468.079	1764.18
468.45	1778.21
468.82	1789.18
469.191	1796.64
469.561	1790.91
469.932	1806.62
470.302	1794.57
470.673	1825.47
471.043	1842.14
471.413	1868.69
471.783	1896.97
472.154	1922.12
472.524	1948.69
472.894	2000.17
473.264	2027.59
473.634	2029.52
474.004	2039.75
474.374	2071.85
474.743	2083.47
475.113	2129.68
475.483	2151.53
475.853	2184.06
476.222	2207.58
476.592	2249.74
476.961	2238.26
477.331	2257.52
477.7	2292.61
478.07	2349.37
478.439	2370.1
478.808	2398.94
479.178	2403.43
479.547	2447.78
479.916	2463.91
480.285	2523.64
480.654	2543.5
481.023	2576.38
481.392	2603.7
481.761	2629.75
482.13	2668.55
482.499	2698.99
482.867	2719.38
483.236	2774.1
483.605	2832.43
483.973	2869.44
484.342	2944.2
484.71	2982.35
485.079	3079.43
485.447	3480.98
485.816	3851.73
486.184	4045.39
486.552	3830.43
486.921	3534.86
487.289	3325
487.657	3264.31
488.025	3242.1
488.393	3251.89
488.761	3283.95
489.129	3333.7
489.497	3360.04
489.865	3441.81
490.233	3471.95
490.6	3529.56
490.968	3510.72
491.336	3533.5
491.703	3550.13
492.071	3589.35
492.438	3626.66
492.806	3661.24
493.173	3722.51
493.541	3751.39
493.908	3745.49
494.275	3755.8
494.642	3762.65
495.01	3784.64
495.377	3802.56
495.744	3833.26
496.111	3907.93
496.478	3970.61
496.845	3976.54
497.211	3974.07
497.578	3989.39
497.945	4008.02
498.312	4066.67
498.678	4133.67
499.045	4202.3
499.412	4200
499.778	4202.14
500.145	4205.95
500.511	4208.19
500.878	4266.56
501.244	4323.3
501.61	4354.32
501.976	4353.05
502.343	4367.05
502.709	4423.07
503.075	4439.76
503.441	4448.29
503.807	4448.71
504.173	4443.94
504.539	4470.71
504.905	4512.67
505.27	4557.65
505.636	4586.81
506.002	4626.64
506.367	4625.93
506.733	4629.26
507.099	4612.9
507.464	4648.15
507.829	4662.52
508.195	4722.28
508.56	4746.6
508.926	4747.81
509.291	4747.8
509.656	4771.78
510.021	4806.77
510.386	4832.46
510.751	4856.78
511.116	4893.54
511.481	4922.24
511.846	4948.47
512.211	4958.29
512.576	4974.71
512.941	4994.41
513.305	5013.34
513.67	5028.79
514.035	5025.05
514.399	5068
514.764	5073.02
515.128	5114.07
515.493	5138.71
515.857	5151.45
516.221	5150.38
516.585	5175.97
516.95	5196.97
517.314	5221.93
517.678	5245.72
518.042	5266.01
518.406	5321.36
518.77	5317.61
519.134	5345.03
519.498	5392.62
519.862	5379.69
520.225	5365.7
520.589	5438.25
520.953	5474.54
521.316	5488.51
521.68	5493.98
522.043	5540.43
522.407	5542.14
522.77	5547.32
523.134	5613.8
523.497	5621.59
523.86	5672.04
524.223	5684.64
524.587	5699.54
524.95	5707.92
525.313	5755.34
525.676	5802.84
526.039	5852.63
526.402	5839.46
526.765	5896.58
527.127	5928.25
527.49	5967.73
527.853	5979.95
528.215	5977.66
528.578	6043.73
528.941	6055.03
529.303	6111.14
529.666	6116.95
530.028	6150.81
530.39	6181.4
530.753	6191.16
531.115	6236.18
531.477	6294.98
531.839	6322.11
532.201	6352.22
532.564	6405.77
532.926	6440.31
533.287	6530.66
533.649	6552.6
534.011	6596.81
534.373	6646.1
534.735	6679.31
535.097	6679.24
535.458	6725.27
535.82	6769.47
536.181	6813.04
536.543	6810.78
536.904	6784.47
537.266	6882.85
537.627	6948.28
537.988	6962.86
538.35	7026.62
538.711	7094.88
539.072	7135.89
539.433	7125.98
539.794	7205.13
540.155	7226.99
540.516	7253.45
540.877	7266.98
541.238	7333.15
541.599	7379.76
541.959	7413.08
542.32	7490.72
542.681	7541.49
543.041	7545.29
543.402	7590.74
543.762	7617.47
544.123	7621.24
544.483	7685.56
544.844	7733.19
545.204	7743.08
545.564	7779.23
545.924	7818.97
546.284	7822.87
546.644	7832.3
547.004	7849.48
547.364	7900
547.724	7980.81
548.084	7998.48
548.444	8074.17
548.804	8076.57
549.164	8067.03
549.523	8062.4
549.883	8065.59
550.242	8096.09
550.602	8153.56
550.961	8183.39
551.321	8178.28
551.68	8224.41
552.04	8280.86
552.399	8359.42
552.758	8339.34
553.117	8315.1
553.476	8420.35
553.835	8454.85
554.194	8494.99
554.553	8453.26
554.912	8464.22
555.271	8560.92
555.63	8603.36
555.989	8644.04
556.347	8605.5
556.706	8653.93
557.065	8647.11
557.423	8702.64
557.782	8742.07
558.14	8763.45
558.499	8804.86
558.857	8826.11
559.215	8824.28
559.573	8891.54
559.932	8914.26
560.29	8979.01
560.648	9034.5
561.006	9087.89
561.364	9098.34
561.722	9130.36
562.08	9161.52
562.438	9109.62
562.795	9184.03
563.153	9250.77
563.511	9277.26
563.868	9316.68
564.226	9312.61
564.583	9348.47
564.941	9349.74
565.298	9455.43
565.656	9399.86
566.013	9428.59
566.37	9495.19
566.727	9585.91
567.085	9685.6
567.442	9777.61
567.799	9854.45
568.156	9910.31
568.513	9994.71
568.87	10105.98
569.226	10238.42
569.583	10440.14
569.94	10534.47
570.297	10615.36
570.653	10554.67
571.01	10612.64
571.366	10814.2
571.723	10915.21
572.079	10877.52
572.436	10859.65
572.792	10865.94
573.148	11031.85
573.505	11215.69
573.861	11527.82
574.217	11603.27
574.573	11562.24
574.929	11491.98
575.285	11504.92
575.641	11637.36
575.997	11730.74
576.352	11786.29
576.708	11820.34
577.064	11935.79
577.42	12206.6
577.775	12485.86
578.131	12565.22
578.486	12449.48
578.842	12217.85
579.197	12249
579.552	12361.35
579.908	12608.44
580.263	12799.68
580.618	12717.09
580.973	12847.21
581.328	13235.51
581.683	13736.61
582.038	14021.67
582.393	13519.72
582.748	12983.43
583.103	12571.95
583.458	12329.92
583.812	12320.6
584.167	12540.53
584.522	12794.29
584.876	12988.2
585.231	13100.04
585.585	13120.2
585.939	12948.37
586.294	12817.88
586.648	12722.79
587.002	12697.37
587.356	12883.83
587.711	13147.78
588.065	13193.16
588.419	13257.82
588.773	13111.74
589.127	12868.35
589.48	12787.06
589.834	12539.68
590.188	12549.36
590.542	12590.49
590.895	12503.76
591.249	12598.84
591.603	12578.12
591.956	12628.38
592.309	12707.16
592.663	12899.79
593.016	13189.49
593.369	13379.99
593.723	13249.88
594.076	13129.72
594.429	13129.55
594.782	13307.63
595.135	13516.03
595.488	13580.12
595.841	13493.07
596.194	13340.5
596.547	13187.46
596.899	13098.29
597.252	13109.68
597.605	13182.46
597.957	13231.16
598.31	13256.92
598.662	13338.75
599.015	13436.23
599.367	13528.13
599.719	13430.73
600.072	13409.77
600.424	13455.23
600.776	13609.57
601.128	13725.26
601.48	13753.53
601.832	13794.12
602.184	13753.09
602.536	13764.34
602.888	13946.29
603.24	14116.22
603.592	14213.27
603.943	14105.63
604.295	13902.03
604.646	13766.82
604.998	13801.03
605.349	13841.63
605.701	13922.7
606.052	14033.6
606.404	13936.87
606.755	13959.41
607.106	14038.28
607.457	14026.42
607.808	14017.29
608.159	13981.07
608.51	13976.35
608.861	14036.74
609.212	13940.74
609.563	14084.35
609.914	14195.85
610.265	14307.89
610.615	14418.94
610.966	14342.6
611.316	14321.07
611.667	14411.56
612.017	14488.5
612.368	14291.38
612.718	14431.28
613.068	14523.46
613.419	14612.84
613.769	14556.35
614.119	14588.29
614.469	14630.47
614.819	14523.9
615.169	14574.29
615.519	14652.91
615.869	14581.66
616.219	14534.03
616.568	14467.01
616.918	14411.35
617.268	14522.58
617.617	14549.84
617.967	14629.73
618.316	14580.71
618.666	14539.52
619.015	14499.96
619.364	14523.63
619.714	14701.92
620.063	14804.7
620.412	14817.24
620.761	14747.62
621.11	14755.1
621.459	14635.57
621.808	14708.45
622.157	14809.78
622.506	14913.16
622.855	15010.97
623.203	15182.86
623.552	15190.34
623.901	15255.48
624.249	15193.6
624.598	15196.47
624.946	15176.86
625.295	15139.87
625.643	15003.97
625.991	15014.94
626.34	15088.58
626.688	15096.68
627.036	15138.9
627.384	15060.67
627.732	15180.91
628.08	15187.9
628.428	15165.12
628.776	15205.88
629.124	15217.17
629.471	15264.46
629.819	15308.36
630.167	15209.9
630.514	15209.07
630.862	15162.05
631.209	15269.08
631.557	15279.98
631.904	15319.24
632.251	15333.26
632.599	15274.32
632.946	15274.03
633.293	15346.31
633.64	15322.67
633.987	15346.39
634.334	15402.09
634.681	15407.37
635.028	15522.39
635.375	15495.5
635.722	15571.35
636.068	15618.07
636.415	15695.78
636.762	15747.72
637.108	15803.52
637.455	15747.24
637.801	15663.88
638.147	15773.26
638.494	15797
638.84	15950.94
639.186	15928.63
639.532	15814.35
639.878	15957.28
640.225	16007.6
640.571	16100.74
640.916	16137.84
641.262	16128.18
641.608	16036.77
641.954	16107.48
642.3	16180.45
642.645	16155.69
642.991	16203.12
643.337	16170.21
643.682	16218.16
644.028	16268.01
644.373	16327.27
644.718	16367.31
645.064	16310.26
645.409	16249.59
645.754	16352.98
646.099	16427.67
646.444	16380.52
646.789	16391.36
647.134	16353.31
647.479	16402.93
647.824	16356.6
648.169	16360.89
648.513	16519.98
648.858	16576.53
649.203	16648.16
649.547	16735.79
649.892	16699.78
650.236	16644.33
650.581	16562.8
650.925	16526.44
651.269	16491.8
651.613	16527.61
651.958	16608.67
652.302	16733.08
652.646	16700.47
652.99	16701.56
653.334	16817.86
653.678	16846.26
654.022	16936.59
654.365	16898.24
654.709	16897.66
655.053	16885.49
655.396	17405.98
655.74	23272.99
656.083	31961.33
656.427	38180.52
656.77	38790.63
657.114	30015.31
657.457	22569.11
657.8	19015.89
658.143	17684.63
658.486	17269.72
658.83	17197.34
659.173	17019.1
659.516	17066.95
659.858	17017.87
660.201	16889.65
660.544	16856.25
660.887	16999.37
661.229	17052.51
661.572	16944.46
661.915	16977.51
662.257	17024.96
662.6	17164.1
662.942	17224.33
663.284	17101.22
663.627	17172.71
663.969	17165.74
664.311	17131.25
664.653	17081.59
664.995	17209.54
665.337	17286.28
665.679	17183.94
666.021	17126.21
666.363	17073.14
666.705	17216.5
667.046	17162.04
667.388	17105.01
667.73	17095.53
668.071	17148.87
668.413	17144.62
668.754	17070.97
669.096	17116.22
669.437	17313
669.778	17266.17
670.119	17222.68
670.461	17127.4
670.802	17153.85
671.143	17102.05
671.484	17197.63
671.825	17232.49
672.165	17286.17
672.506	17390.67
672.847	17389.04
673.188	17357.76
673.528	17274.57
673.869	17261.1
674.21	17352.79
674.55	17358.67
674.89	17313.27
675.231	17274.88
675.571	17256.74
675.911	17132.23
676.252	17279.33
676.592	17399.82
676.932	17202.57
677.272	17129.75
677.612	17225.78
677.952	17265.32
678.292	17276.71
678.631	17231.53
678.971	17228.59
679.311	17370.16
679.651	17346.57
679.99	17387.32
680.33	17356.07
680.669	17291.68
681.009	17163.72
681.348	17208.97
681.687	17305.21
682.026	17344.22
682.366	17258.17
682.705	17332.63
683.044	17364.98
683.383	17404.81
683.722	17383.16
684.061	17324.89
684.4	17380.56
684.738	17418.53
685.077	17442.17
685.416	17539.62
685.754	17559.71
686.093	17551.58
686.431	17598.34
686.77	17480.51
687.108	17403.49
687.447	17261.76
687.785	17416.74
688.123	17396.85
688.461	17440.65
688.799	17317.52
689.137	17338.06
689.475	17256.83
689.813	17201.05
690.151	17228.37
690.489	17239.47
690.827	17259.18
691.164	17322.08
691.502	17363.69
691.84	17329.36
692.177	17349.53
692.515	17395.24
692.852	17322
693.189	17500.2
693.527	17455.01
693.864	17420.29
694.201	17413.63
694.538	17346.29
694.875	17291.5
695.212	17126.64
695.549	17178.17
695.886	17166.59
696.223	17238.56
696.56	17285.37
696.897	17218.8
697.233	17367.42
697.57	17430.48
697.906	17591.07
698.243	17507.68
698.579	17403.84
698.916	17351.11
699.252	17222.89
699.588	17201.08
699.924	17262.98
700.261	17203.62
700.597	17244.01
700.933	17221.91
701.269	17090.64
701.605	17195.67
701.941	17123.31
702.276	17155.97
702.612	17097.69
702.948	17041.45
703.283	17115.67
703.619	17090.05
703.954	17122.7
704.29	17205.27
704.625	17278.48
704.961	17131.52
705.296	17142.34
705.631	17135.34
705.966	17197.79
706.301	17070.92
706.637	17087.43
706.972	17268.95
707.306	17358.61
707.641	17424.95
707.976	17363.99
708.311	17361.4
708.646	17437.17
708.98	17248.58
709.315	17213.98
709.649	17205.55
709.984	17284.17
710.318	17212.03
710.653	17302.23
710.987	17248.83
711.321	17262.2
711.655	17240.33
711.989	17086.91
712.324	17064.22
712.658	17041.54
712.992	17087.68
713.325	17022.57
713.659	17085.98
713.993	16899.54
714.327	16918.83
714.66	17019.72
714.994	16991
715.328	16952.46
715.661	16885.65
715.994	17092.74
716.328	16852.89
716.661	16783.98
716.994	16818.3
717.328	16768.62
717.661	16827
717.994	16932.79
718.327	16970.32
718.66	16915.17
718.993	16890.41
719.325	16840.98
719.658	16846.13
719.991	16765.66
720.324	16824.91
720.656	16573.25
720.989	16626.53
721.321	16772.38
721.654	16759.98
721.986	16641.11
722.318	16613.59
722.651	16722.53
722.983	16668.51
723.315	16695.52
723.647	16576.29
723.979	16568.11
724.311	16611
724.643	16532.93
724.975	16581.46
725.307	16578.95
725.638	16682.5
725.97	16611.56
726.302	16646.87
726.633	16506.15
726.965	16524.68
727.296	16576.14
727.628	16603.69
727.959	16451.67
728.29	16441.97
728.621	16375.77
728.952	16457.4
729.284	16364.39
729.615	16360.09
729.945	16216.8
730.276	16215.35
730.607	16233.94
730.938	16180.37
731.269	16241.54
731.599	16245.98
731.93	16229.04
732.261	16127.24
732.591	16040.06
732.922	16054.59
733.252	15907.35
733.582	15879.13
733.912	15936.6
734.243	15954.16
734.573	16078.29
734.903	16081.13
735.233	15838.91
735.563	15909.89
735.893	15839.15
736.223	15781.09
736.552	15782.62
736.882	15748.79
737.212	15719.49
737.541	15678.64
737.871	15696.66
738.2	15580.23
738.53	15406.69
738.859	15408.82
739.188	15401.21
739.518	15428.95
739.847	15443.96
740.176	15345.21
740.505	15347.75
740.834	15343.61
741.163	15178.29
741.492	14976.03
741.821	14902.68
742.15	14857.12
742.478	14974.15
742.807	14905.36
743.136	14936.42
743.464	14858.62
743.793	14782.67
744.121	14817.83
744.449	14735.18
744.778	14701.6
745.106	14741.48
745.434	14722.77
745.762	14604.15
746.09	14603.93
746.418	14537.88
746.746	14435.74
747.074	14425.29
747.402	14427.87
747.73	14436.48
748.057	14471.99
748.385	14403
748.712	14306.16
749.04	14147.58
749.367	14143.72
749.695	14185.73
750.022	14246.59
750.349	14206.15
750.677	14196.89
751.004	14136.57
751.331	14082.17
751.658	14027.81
751.985	13873.92
752.312	13765.86
752.639	13834.25
752.966	13888.94
753.292	13671.91
753.619	13729.13
753.946	13746.51
754.272	13750.9
754.599	13758.02
754.925	13698.9
755.251	13652.87
755.578	13610.76
755.904	13660.23
756.23	13710.14
756.556	13674.11
756.882	13567.38
757.208	13382.34
757.534	13498.58
757.86	13597.22
758.186	13633.16
758.512	13529.62
758.838	13445.83
759.163	13332.36
759.489	13263.8
759.814	13140.73
760.14	13202.69
760.465	13169.56
760.791	12995.22
761.116	12923.94
761.441	12861.22
761.766	12970.16
762.092	12882.28
762.417	12851.71
762.742	12830.25
763.066	12680.49
763.391	12655.54
763.716	12715.68
764.041	12657.85
764.366	12610.93
764.69	12616.15
765.015	12593.49
765.339	12668.32
765.664	12649.94
765.988	12603.81
766.312	12504.53
766.637	12372.3
766.961	12299.94
767.285	12262.58
767.609	12144.82
767.933	11920.3
768.257	12020.46
768.581	12041.72
768.905	12136.2
769.229	12072.28
769.552	12017.46
769.876	12134.63
770.2	12077.22
770.523	11987.15
770.847	11942.5
771.17	11884.74
771.493	11994.18
771.817	11973.47
772.14	11804.28
772.463	11633.94
772.786	11683.11
773.109	11643.87
773.432	11691.77
773.755	11564.58
774.078	11522.29
774.401	11402.28
774.724	11351.68
775.046	11334.25
775.369	11284.57
775.692	11165.49
776.014	11067.51
776.336	11093.68
776.659	11093.33
776.981	11063.2
777.303	10989.18
777.626	10887.05
777.948	10815.56
778.27	10797.71
778.592	10805.12
778.914	10934.38
779.236	10956.64
779.557	10920.48
779.879	10969.26
780.201	10940.31
780.523	10970.66
780.844	10856.72
781.166	10903.02
781.487	10864.97
781.809	10861.92
782.13	10876.49
782.451	10847.66
782.772	10879
783.094	10883.12
783.415	11042.81
783.736	10961.77
784.057	10948.44
784.378	10898.6
784.698	10928.09
785.019	11012.9
785.34	10841.64
785.661	10936.21
785.981	10983.38
786.302	10934.69
786.622	10954.43
786.943	11013.2
787.263	10931.4
787.583	10949.89
787.903	11007.2
788.224	10983.3
788.544	11078.64
788.864	11085.71
789.184	11205.18
789.504	11101.65
789.824	11060.21
790.143	11038.09
790.463	10988.88
790.783	10948.49
791.102	10955.37
791.422	10980.71
791.741	10999.6
792.061	10877.06
792.38	10928.04
792.699	10915.18
793.019	10916.15
793.338	10862.68
793.657	10918.51
793.976	11083.46
794.295	11067.62
794.614	11072.3
794.933	10928.93
795.252	11007.61
795.57	10965.41
795.889	10904.87
796.208	10880.06
796.526	10715.44
796.845	10737.2
797.163	10713.73
797.482	10730.55
797.8	10778.25
798.118	10748.47
798.436	10706.16
798.754	10647.56
799.073	10639.81
799.391	10768.62
799.708	10775.59
800.026	10653.65
800.344	10561.94
800.662	10606.55
800.98	10565.86
801.297	10591.09
801.615	10531.07
801.932	10507.7
802.25	10476.66
802.567	10395.09
802.884	10257.72
803.202	10237.67
803.519	10241.02
803.836	10261.12
804.153	10212.59
804.47	10208.34
804.787	10070.14
805.104	10048.32
805.421	10111.72
805.737	10025.05
806.054	9960.37
806.371	9940.33
806.687	9930.44
807.004	9948.51
807.32	9991.66
807.637	9922.36
807.953	9843.65
808.269	9767.94
808.585	9838.22
808.902	9722.42
809.218	9668.67
809.534	9711.69
809.85	9681.65
810.165	9618.11
810.481	9634.83
810.797	9547.33
811.113	9432.67
811.428	9356.39
811.744	9430.8
812.059	9460.09
812.375	9468.89
812.69	9358.13
813.006	9315.65
813.321	9291.5
813.636	9279.23
813.951	9340.7
814.266	9272.23
814.581	9185.28
814.896	9130.44
815.211	9063.11
815.526	9000.04
815.841	8908.6
816.155	8895.15
816.47	8897.33
816.784	8931.74
817.099	8877.44
817.413	8835.83
817.728	8870.69
818.042	8854.99
818.356	8918.61
818.67	8850.12
818.985	8837.2
819.299	8737.82
819.613	8729.18
819.926	8670.97
820.24	8664.75
820.554	8668.93
820.868	8742.93
821.182	8600.97
821.495	8607.27
821.809	8441.89
822.122	8389.92
822.436	8433.53
822.749	8438.89
823.062	8338.66
823.376	8320.14
823.689	8205.63
824.002	8179.91
824.315	8149.63
824.628	8178.58
824.941	8150.67
825.254	8125.66
825.566	8033.72
825.879	8046.62
826.192	8026.79
826.504	7952.3
826.817	7992.54
827.129	8014.38
827.442	7983.16
827.754	7923.16
828.066	7897.11
828.379	7847.36
828.691	7959.14
829.003	7946.92
829.315	7962.07
829.627	7910.73
829.939	7842.65
830.251	7791.65
830.562	7750.41
830.874	7775.44
831.186	7731.86
831.497	7665.92
831.809	7560.76
832.12	7468.97
832.432	7440.12
832.743	7501.85
833.054	7528.77
833.365	7537.14
833.676	7460.55
833.988	7476.94
834.299	7432.2
834.61	7361.37
834.92	7316.27
835.231	7385.01
835.542	7349.61
835.853	7302.63
836.163	7256.56
836.474	7248.99
836.784	7262.92
837.095	7200.99
837.405	7150.18
837.715	7173.4
838.026	7186.05
838.336	7147.46
838.646	7087.5
838.956	6973.28
839.266	6957.32
839.576	6886.59
839.886	6888
840.195	6881.48
840.505	6812.8
840.815	6797.6
841.124	6773.56
841.434	6716.48
841.743	6652.51
842.053	6668.81
842.362	6668.34
842.671	6704.07
842.981	6738.58
843.29	6598.45
843.599	6547.77
843.908	6538.32
844.217	6501.87
844.526	6536.94
844.835	6548.86
845.143	6487.92
845.452	6399.54
845.761	6364.73
846.069	6331.95
846.378	6364.51
846.686	6264.03
846.995	6268.59
847.303	6324.29
847.611	6288.21
847.919	6202.46
848.227	6192.85
848.535	6130.07
848.843	6102.47
849.151	6032.69
849.459	6092.95
849.767	6100.81
850.075	6039.78
850.382	5961.95
850.69	5900.39
850.998	5860.5
851.305	5836.22
851.612	5894.38
851.92	5927.67
852.227	5929.54
852.534	5906.12
852.841	5783.68
853.148	5711.28
853.455	5761.26
853.762	5754.55
854.069	5735.5
854.376	5701.66
854.683	5688.83
854.99	5652.1
855.296	5594.1
855.603	5535.48
855.909	5543.66
856.216	5535.19
856.522	5557.06
856.828	5506.21
857.135	5500.45
857.441	5453.91
857.747	5364.15
858.053	5348.16
858.359	5317.85
858.665	5320.82
858.971	5249.68
859.276	5223.7
859.582	5195.85
859.888	5174.16
860.193	5128.38
860.499	5089.36
860.804	5075.31
861.11	5046.86
861.415	5044.65
861.72	5074.7
862.026	5027.99
862.331	4947.42
862.636	4903.56
862.941	4941.99
863.246	4960.68
863.551	4963.8
863.855	4949.01
864.16	4896.89
864.465	4858.94
864.769	4851.55
865.074	4786.58
865.378	4758.03
865.683	4723.63
865.987	4742.13
866.291	4720.83
866.596	4758.61
866.9	4713.27
867.204	4677.26
867.508	4628.22
867.812	4639.44
868.116	4619.58
868.42	4592.44
868.723	4574.77
869.027	4560.8
869.331	4519.12
869.634	4466.31
869.938	4377.08
870.241	4388.31
870.544	4371.16
870.848	4397
871.151	4363.09
871.454	4333.29
871.757	4309.89
872.06	4294.32
872.363	4255.14
872.666	4250.45
872.969	4207.58
873.272	4215.12
873.574	4205.11
873.877	4190.1
874.18	4151.31
874.482	4086.79
874.785	4036.67
875.087	3998.19
875.389	4003.32
875.692	4006.12
875.994	4005.92
876.296	4024.87
876.598	4010.05
876.9	3947.77
877.202	3889.32
877.504	3860.77
877.805	3864.72
878.107	3885.65
878.409	3858.35
878.71	3865.6
879.012	3852.29
879.313	3810.18
879.615	3823.17
879.916	3793.58
880.217	3752.79
880.518	3718.29
880.82	3694.94
881.121	3673.32
881.422	3660.75
881.723	3635.19
882.023	3602.29
882.324	3562.24
882.625	3515.58
882.926	3496.53
883.226	3542.1
883.527	3525.58
883.827	3519.71
884.128	3513.31
884.428	3508.72
884.728	3465.98
885.028	3436.37
885.328	3426.94
885.629	3401.29
885.929	3396.88
886.228	3403.46
886.528	3362.67
886.828	3318.33
887.128	3290.83
887.427	3248.81
887.727	3226.88
888.027	3207.88
888.326	3203.88
888.625	3202.7
888.925	3155.08
889.224	3147.47
889.523	3116.39
889.822	3072.31
890.121	3069.13
890.42	3077.76
890.719	3114.89
891.018	3099.18
891.317	3097.46
891.616	3079.4
891.914	3050.27
892.213	3049.38
892.512	3031.65
892.81	2992.49
893.108	2959.35
893.407	2954.4
893.705	2976.72
894.003	2975.01
894.301	2967.92
894.599	2958.85
894.897	2957.16
895.195	2939.61
895.493	2921.03
895.791	2944.53
896.089	2943.94
896.386	2949.36
896.684	2956.29
896.981	2959.61
897.279	2956.05
897.576	2969.48
897.874	2924.02
898.171	2912.84
898.468	2914.8
898.765	2916.99
899.062	2952.42
899.359	2949.47
899.656	2943.34
899.953	2916.5
900.25	2905.7
900.547	2883.39
900.843	2865.12
901.14	2866.9
901.436	2865.09
901.733	2876.34
902.029	2882.95
902.325	2877.89
902.622	2830.15
902.918	2830.03
903.214	2817.56
903.51	2795.74
903.806	2804.83
904.102	2826.73
904.398	2848.62
904.694	2846.16
904.989	2864.76
905.285	2849
905.581	2841.09
905.876	2839.94
906.171	2808.58
906.467	2786.22
906.762	2783.36
907.057	2773.07
907.353	2781.03
907.648	2771.68
907.943	2759.49
908.238	2736.44
908.533	2701.42
908.827	2693.58
909.122	2688.18
909.417	2701.4
909.711	2713.42
910.006	2704.5
910.301	2692.14
910.595	2701.01
910.889	2698
911.184	2657.45
911.478	2654.04
911.772	2664.94
912.066	2644.7
912.36	2626.63
912.654	2618.34
912.948	2628.29
913.242	2640.69
913.536	2602.23
913.829	2569.08
914.123	2545.83
914.416	2505.97
914.71	2511.09
915.003	2537.29
915.297	2546.16
915.59	2544.49
915.883	2527.7
916.176	2522.03
916.469	2497.11
916.762	2482.71
917.055	2469.15
917.348	2459.19
917.641	2461.37
917.934	2446.88
918.226	2443.2
918.519	2429.13
918.811	2415.21
919.104	2397.36
919.396	2372.14
919.689	2354.76
919.981	2343.76
920.273	2322.4
920.565	2304.51
920.857	2283.91
921.149	2283.17
921.441	2280.29
921.733	2271.35
922.025	2247.75
922.316	2228.46
922.608	2220.67
922.9	2205.02
923.191	2201.89
923.483	2210.98
923.774	2186.11
924.065	2184.2
924.357	2176.65
924.648	2144.97
924.939	2120.48
925.23	2095.32
925.521	2075.02
925.812	2058.37
926.102	2054.87
926.393	2059.49
926.684	2066.61
926.975	2055.66
927.265	2043.68
927.556	2038.85
927.846	2014.41
928.136	1990.59
928.427	1967.58
928.717	1948.04
929.007	1930.86
929.297	1919.42
929.587	1924.46
929.877	1928.61
930.167	1925.73
930.457	1901.48
930.746	1870.29
931.036	1860.41
931.325	1858.14
931.615	1862.86
931.904	1880.62
932.194	1864.4
932.483	1863.2
932.772	1865.08
933.062	1857.94
933.351	1845.25
933.64	1813.83
933.929	1789.14
934.218	1766.77
934.506	1749.14
934.795	1741.58
935.084	1734.51
935.372	1725.12
935.661	1709.57
935.949	1693.48
936.238	1684.79
936.526	1658.14
936.815	1636.59
937.103	1619.47
937.391	1606.92
937.679	1602.66
937.967	1600.23
938.255	1597.61
938.543	1595.32
938.831	1571.2
939.118	1561.03
939.406	1541.67
939.693	1519.23
939.981	1506.12
940.268	1504.22
940.556	1507.32
940.843	1517.79
941.13	1521.54
941.418	1515
941.705	1502.99
941.992	1489
942.279	1471.03
942.566	1443.95
942.852	1422.07
943.139	1409.34
943.426	1390.15
943.712	1391.78
943.999	1392.53
944.285	1395.47
944.572	1394.25
944.858	1384.38
945.144	1377.5
945.431	1356.85
945.717	1344.78
946.003	1336.77
946.289	1329.45
946.575	1322.99
946.861	1318.17
947.146	1309.53
947.432	1302.07
947.718	1290.68
948.003	1281.31
948.289	1271.89
948.574	1253.93
948.86	1239
949.145	1232.79
949.43	1220.87
949.715	1219.61
950	1217.03
950.285	1217.47
950.57	1215.05
950.855	1206.4
951.14	1188.24
951.425	1178.58
951.709	1166.82
951.994	1156.84
952.278	1150.45
952.563	1141.21
952.847	1134.84
953.132	1132.82
953.416	1132.53
953.7	1130
953.984	1126.36
954.268	1115.16
954.552	1100.47
954.836	1088.61
955.12	1079.54
955.404	1073.13
955.687	1065.62
955.971	1059.98
956.254	1055.4
956.538	1051.81
956.821	1051.7
957.105	1050.21
957.388	1048.66
957.671	1039.27
957.954	1030.18
958.237	1019.98
958.52	1006.62
958.803	998.12
959.086	990.81
959.369	987.93
959.652	980.7
959.934	975.61
960.217	967.97
960.499	964.18
960.782	954.15
961.064	948.73
961.346	939.95
961.629	933.78
961.911	920.83
962.193	917.93
962.475	912.65
962.757	909.81
963.039	908.85
963.32	906.3
963.602	894.15
963.884	888.67
964.165	879.98
964.447	869.89
964.728	859.93
965.01	859.28
965.291	851.6
965.572	852.92
965.853	853.4
966.134	850.94
966.415	848.77
966.696	846.23
966.977	835.82
967.258	832
967.539	821.94
967.819	813.43
968.1	803
968.38	794.6
968.661	790.61
968.941	784.32
969.222	784.46
969.502	784.71
969.782	784.05
970.062	781.32
970.342	776.76
970.622	768.54
970.902	765.16
971.182	754.63
971.462	747.13
971.741	739.09
972.021	730.93
972.3	728.2
972.58	726.4
972.859	723.4
973.138	720.64
973.418	722.34
973.697	714.57
973.976	714.04
974.255	705.38
974.534	697.99
974.813	688.79
975.092	686.57
975.37	684.69
975.649	679.94
975.928	681.01
976.206	675.53
976.485	674.2
976.763	666.67
977.041	661.7
977.32	654.31
977.598	649.54
977.876	647.68
978.154	645.16
978.432	642.47
978.71	641.03
978.988	639.81
979.265	636.34
979.543	634.6
979.821	631.64
980.098	626.47
980.376	622.33
980.653	614.35
980.93	609.35
981.208	601.26
981.485	598.35
981.762	596.04
982.039	591.44
982.316	591.17
982.593	590.78
982.87	591.22
983.146	586.81
983.423	584.99
983.7	576.89
983.976	571.02
984.253	569.54
984.529	565.81
984.805	560.89
985.082	558.33
985.358	555.69
985.634	554.2
985.91	551.75
986.186	550.69
986.462	548.68
986.738	547.12
987.013	542.71
987.289	541.11
987.565	539.63
987.84	534.79
988.116	530.99
988.391	527.59
988.666	523.43
988.942	522.01
989.217	519.78
989.492	515.91
989.767	514.21
990.042	510.51
990.317	506.3
990.592	502.6
990.866	501.47
991.141	500.65
991.416	494.78
991.69	492.32
991.964	492.87
992.239	487.13
992.513	487.41
992.787	484.09
993.062	485.73
993.336	482.19
993.61	482.23
993.884	479.31
994.158	475.71
994.431	475.26
994.705	470.73
994.979	468.94
995.252	466.21
995.526	464.8
995.799	462.82
996.073	461.04
996.346	459.79
996.619	459
996.892	455.96
997.165	455.63
997.438	450.64
997.711	449.16
997.984	447.1
998.257	445.9
998.53	440.69
998.802	440.14
999.075	442.32
999.347	435.62
999.62	436.51
999.892	436.07
1000.165	436.03
1000.437	432.34
1000.709	430.39
1000.981	430.81
1001.253	426.91
1001.525	424.57
1001.797	424.51
1002.068	422.02
1002.34	421.94
1002.612	420.24
1002.883	418.99
1003.155	417.47
1003.426	414.43
1003.698	414.86
1003.969	415.45
1004.24	414.94
1004.511	412.19
1004.782	411.56
1005.053	408.66
1005.324	408.07
1005.595	406.8
1005.866	405.04
1006.136	402.51
1006.407	402.62
1006.678	401.45
1006.948	400.64
1007.218	399.83
1007.489	400.32
1007.759	398.6
1008.029	398.04
1008.299	395.58
1008.569	395.9
1008.839	393.45
1009.109	392.35
1009.379	392.1
1009.649	390.52
1009.918	389.63
1010.188	389.07
1010.458	388.17
1010.727	387.18
1010.996	386.82
1011.266	385.19
1011.535	385.95
1011.804	384.62
1012.073	383.78
1012.342	380.93
1012.611	381.64
1012.88	380.2
1013.149	379.19
1013.417	378.47
1013.686	378.18
1013.955	378.04
1014.223	376.9
1014.492	378.49
1014.76	375.7
1015.028	374.85
1015.296	374.92
1015.565	374.13
1015.833	373.16
1016.101	372.15
1016.368	372.95
1016.636	368.63
1016.904	369.9
1017.172	370.95
1017.439	370.86
1017.707	370.3
1017.974	368.94
1018.242	368.68
1018.509	369.08
1018.776	369.43
1019.044	368
1019.311	366.1
1019.578	364.39
1019.845	366.24
1020.112	366.96
1020.378	366.96
1020.645	366.96
