Data from 190702_Kr_34K_no_film_FLMS138901_14-44-17-744.txt Node
Date: Tue Jul 02 14:44:17 EDT 2019
User: pSAM
Spectrometer: FLMS13890
Trigger mode: 0
Integration Time (sec): 5.000000E-3
Scans to average: 1000
Electric dark correction enabled: true
Nonlinearity correction enabled: false
Boxcar width: 0
XAxis mode: Wavelengths
Number of Pixels in Spectrum: 2048
>>>>>Begin Spectral Data<<<<<
342.097	-60.33
342.483	-60.33
342.868	-60.33
343.254	-100.99
343.639	-104.77
344.025	-102.95
344.41	-99.09
344.796	-89.88
345.181	-80.93
345.567	-67.76
345.952	-51.6
346.337	-35.69
346.722	-17.35
347.107	2
347.493	19.9
347.878	37.88
348.263	57.78
348.648	77.44
349.033	96.34
349.418	117.28
349.802	136.63
350.187	155.24
350.572	170.61
350.957	229.75
351.342	352.62
351.726	378.26
352.111	392.63
352.495	408.24
352.88	419.49
353.264	434.25
353.649	445.78
354.033	456.04
354.418	466.36
354.802	476.65
355.186	484.17
355.57	490.1
355.955	498.44
356.339	504.13
356.723	507.91
357.107	513.25
357.491	531.42
357.875	519.82
358.259	521.49
358.643	523.92
359.026	527.33
359.41	528.06
359.794	528.2
360.178	528.2
360.561	528.17
360.945	528.39
361.329	530.36
361.712	530.35
362.096	529.18
362.479	531.48
362.862	529.23
363.246	527.13
363.629	528.65
364.012	527.51
364.396	529.42
364.779	529.5
365.162	528.64
365.545	530.45
365.928	529.94
366.311	530.61
366.694	534.86
367.077	536.05
367.46	532.8
367.843	535.99
368.226	538.23
368.608	539.19
368.991	540.64
369.374	541.91
369.756	543.51
370.139	543.92
370.521	541.78
370.904	544.8
371.286	546.33
371.669	545.54
372.051	548.08
372.433	551.36
372.816	549.6
373.198	553.08
373.58	555.52
373.962	558.58
374.344	560.32
374.726	563.82
375.108	563.18
375.49	567.21
375.872	567.61
376.254	569.22
376.636	570.99
377.018	570.06
377.399	571.66
377.781	572.77
378.163	576.79
378.544	578.84
378.926	583.02
379.307	589.67
379.689	594.15
380.07	596.63
380.452	597.65
380.833	597.67
381.214	601.13
381.596	608.23
381.977	611.81
382.358	617.93
382.739	620.53
383.12	626.13
383.501	628.16
383.882	628.97
384.263	629
384.644	627.24
385.025	634.92
385.406	635.18
385.787	640.98
386.167	642.49
386.548	646.93
386.929	650.97
387.309	659.86
387.69	667.05
388.07	676.37
388.451	677.37
388.831	681.65
389.211	677.02
389.592	672.16
389.972	670.51
390.352	675.88
390.733	676.99
391.113	678.62
391.493	681.39
391.873	689.23
392.253	698.87
392.633	710.31
393.013	716.28
393.393	720.18
393.772	719.65
394.152	721.22
394.532	720.43
394.912	725.95
395.291	723.33
395.671	724.76
396.05	722.05
396.43	722.29
396.809	719.72
397.189	732.38
397.568	738.01
397.948	744.44
398.327	755.51
398.706	760.36
399.085	762.77
399.465	762.36
399.844	756.73
400.223	752.31
400.602	756.47
400.981	751.53
401.36	752
401.739	752.43
402.117	762.85
402.496	756.43
402.875	761.62
403.254	768.66
403.632	766.42
404.011	774.43
404.39	783.68
404.768	789.63
405.147	801.9
405.525	811.48
405.903	810.26
406.282	816.14
406.66	810.57
407.038	805.46
407.417	801.71
407.795	800.64
408.173	802.88
408.551	806.93
408.929	809.93
409.307	814.67
409.685	822.51
410.063	826.35
410.441	821.21
410.818	831.02
411.196	831.22
411.574	839.5
411.952	843.41
412.329	858.69
412.707	874.57
413.084	882.58
413.462	886.37
413.839	892.16
414.217	880.48
414.594	880.09
414.971	883.77
415.349	886.37
415.726	888.32
416.103	884.75
416.48	888.32
416.857	893.55
417.234	907.43
417.611	905.42
417.988	907.45
418.365	898.96
418.742	903.93
419.119	910.68
419.495	913.54
419.872	915.18
420.249	936.23
420.625	946.31
421.002	960.04
421.379	966.47
421.755	984.71
422.131	996.42
422.508	999.52
422.884	1006.47
423.26	1013.86
423.637	1025.58
424.013	1003.26
424.389	995.95
424.765	986.65
425.141	991.79
425.517	986.91
425.893	980.87
426.269	982.41
426.645	987.67
427.021	1018.4
427.397	1031.56
427.772	1043.24
428.148	1040.81
428.524	1042.06
428.899	1036.81
429.275	1043.43
429.651	1061.39
430.026	1077.75
430.401	1088.28
430.777	1088.17
431.152	1084
431.527	1079.57
431.903	1077.92
432.278	1072.26
432.653	1071.38
433.028	1080.83
433.403	1107.83
433.778	1141.41
434.153	1139.75
434.528	1134.51
434.903	1129.8
435.278	1140
435.653	1144.15
436.027	1149.15
436.402	1155.58
436.777	1167.96
437.151	1172.64
437.526	1177.9
437.9	1181.06
438.275	1199.3
438.649	1196.19
439.023	1207.76
439.398	1206.04
439.772	1204.26
440.146	1208.52
440.52	1225.04
440.895	1245.45
441.269	1282.71
441.643	1302.62
442.017	1300.87
442.391	1297.51
442.765	1292.09
443.138	1285.71
443.512	1300.5
443.886	1304.38
444.26	1311.72
444.633	1319.08
445.007	1320.29
445.38	1321.21
445.754	1328.4
446.127	1336.1
446.501	1332.38
446.874	1333.26
447.248	1322.97
447.621	1337.99
447.994	1330.54
448.367	1338.88
448.741	1344.8
449.114	1338.99
449.487	1355.68
449.86	1359.17
450.233	1361.08
450.606	1354.86
450.978	1350.32
451.351	1357.6
451.724	1353.17
452.097	1353.49
452.469	1367.56
452.842	1365.68
453.215	1370.73
453.587	1375.38
453.96	1376.6
454.332	1376.94
454.704	1390.93
455.077	1396.03
455.449	1411.63
455.821	1410.27
456.194	1431.25
456.566	1430.16
456.938	1444.64
457.31	1460.57
457.682	1487.11
458.054	1495.42
458.426	1515.37
458.798	1527.86
459.17	1539.05
459.541	1532.9
459.913	1514.23
460.285	1517.42
460.656	1517.32
461.028	1516.51
461.399	1533.51
461.771	1531.12
462.142	1544.19
462.514	1568.51
462.885	1581.37
463.256	1619.15
463.628	1636.79
463.999	1668.75
464.37	1703.17
464.741	1710.94
465.112	1696.92
465.483	1709.94
465.854	1718.44
466.225	1711.93
466.596	1708.14
466.967	1729.67
467.338	1732.64
467.708	1762.17
468.079	1764.58
468.45	1782.11
468.82	1792.16
469.191	1798.22
469.561	1790.97
469.932	1804.49
470.302	1797.07
470.673	1830.13
471.043	1845.25
471.413	1870.11
471.783	1895.34
472.154	1927.66
472.524	1954.5
472.894	1998.6
473.264	2030.82
473.634	2031.74
474.004	2042.84
474.374	2077.42
474.743	2085.63
475.113	2130.53
475.483	2158.54
475.853	2190.35
476.222	2209.11
476.592	2250.79
476.961	2237.72
477.331	2255.4
477.7	2291.37
478.07	2344.61
478.439	2372.28
478.808	2403.01
479.178	2401.11
479.547	2450.09
479.916	2469.43
480.285	2530.5
480.654	2546.01
481.023	2577.58
481.392	2604.21
481.761	2631.31
482.13	2669.63
482.499	2695.64
482.867	2718.5
483.236	2777.21
483.605	2832.63
483.973	2873.26
484.342	2946.39
484.71	2983.94
485.079	3069.21
485.447	3471.43
485.816	3861.3
486.184	4067.76
486.552	3844.19
486.921	3546.06
487.289	3330.81
487.657	3272.81
488.025	3257.38
488.393	3265.07
488.761	3298.11
489.129	3338.8
489.497	3367.32
489.865	3447.08
490.233	3473.46
490.6	3529.12
490.968	3513.68
491.336	3533.33
491.703	3547.48
492.071	3588.05
492.438	3618.58
492.806	3661.84
493.173	3723.21
493.541	3747.43
493.908	3746.11
494.275	3764.12
494.642	3779.84
495.01	3798.97
495.377	3809.9
495.744	3835.23
496.111	3904.22
496.478	3966.27
496.845	3977.77
497.211	3991.81
497.578	4003
497.945	4029.01
498.312	4095.37
498.678	4150.6
499.045	4207.99
499.412	4200.09
499.778	4208.14
500.145	4203.25
500.511	4203.25
500.878	4266.96
501.244	4329.3
501.61	4354.64
501.976	4349.87
502.343	4364.58
502.709	4430.74
503.075	4446.7
503.441	4458.18
503.807	4474.42
504.173	4469.49
504.539	4474.71
504.905	4510.51
505.27	4544.28
505.636	4566.33
506.002	4612.83
506.367	4619.99
506.733	4630.02
507.099	4625.62
507.464	4645.45
507.829	4671.4
508.195	4713.45
508.56	4745.67
508.926	4741.27
509.291	4746.97
509.656	4772.05
510.021	4816.02
510.386	4844.6
510.751	4853.29
511.116	4898.36
511.481	4921.4
511.846	4948.89
512.211	4955.33
512.576	4981.38
512.941	4986.94
513.305	5017.05
513.67	5048.65
514.035	5040.56
514.399	5084
514.764	5088.71
515.128	5123.17
515.493	5141.13
515.857	5185.56
516.221	5173.9
516.585	5197.32
516.95	5228.89
517.314	5238.14
517.678	5239.47
518.042	5274.5
518.406	5352.92
518.77	5349.07
519.134	5373.92
519.498	5419.43
519.862	5408.29
520.225	5377.18
520.589	5426.94
520.953	5448.91
521.316	5473.51
521.68	5503.93
522.043	5551.1
522.407	5556.36
522.77	5578.7
523.134	5644.52
523.497	5625.17
523.86	5666.76
524.223	5696.6
524.587	5725.29
524.95	5736.5
525.313	5773.53
525.676	5806.35
526.039	5822.1
526.402	5847.21
526.765	5907.32
527.127	5950.6
527.49	5981.37
527.853	6000.75
528.215	6008.12
528.578	6053.54
528.941	6078.25
529.303	6132.85
529.666	6150.88
530.028	6187.11
530.39	6229.56
530.753	6230.54
531.115	6265.74
531.477	6329.57
531.839	6349.86
532.201	6383.97
532.564	6406.61
532.926	6461.98
533.287	6546.54
533.649	6571.91
534.011	6621.04
534.373	6674.56
534.735	6695.9
535.097	6711.23
535.458	6749.78
535.82	6801.82
536.181	6810.56
536.543	6827.99
536.904	6816.2
537.266	6918.41
537.627	6965.72
537.988	6990.47
538.35	7039.43
538.711	7071.19
539.072	7102.27
539.433	7119.68
539.794	7162.09
540.155	7181.83
540.516	7237.66
540.877	7285.45
541.238	7327.74
541.599	7393.28
541.959	7430.45
542.32	7485.46
542.681	7546.5
543.041	7559.09
543.402	7584.6
543.762	7644.06
544.123	7654.32
544.483	7694.66
544.844	7734.99
545.204	7760.55
545.564	7783.61
545.924	7816.6
546.284	7824.73
546.644	7842.82
547.004	7887.16
547.364	7938.72
547.724	8012.54
548.084	8012.62
548.444	8101.46
548.804	8127.82
549.164	8115.23
549.523	8113.1
549.883	8106.27
550.242	8123.84
550.602	8170.26
550.961	8184.55
551.321	8196.26
551.68	8258.35
552.04	8309.23
552.399	8370.72
552.758	8380.91
553.117	8379.18
553.476	8479.81
553.835	8497.89
554.194	8519.73
554.553	8476.8
554.912	8497.86
555.271	8565.76
555.63	8590.63
555.989	8653.26
556.347	8652.11
556.706	8712.89
557.065	8683.74
557.423	8715.61
557.782	8758.12
558.14	8797.23
558.499	8814.6
558.857	8823.25
559.215	8826.96
559.573	8894
559.932	8931.7
560.29	8996.33
560.648	9015.55
561.006	9072.74
561.364	9087.31
561.722	9137.97
562.08	9209.92
562.438	9153.93
562.795	9237.43
563.153	9273.87
563.511	9288
563.868	9302.27
564.226	9326.55
564.583	9372.85
564.941	9362.63
565.298	9410.56
565.656	9417.03
566.013	9472.97
566.37	9516.78
566.727	9586.42
567.085	9666.58
567.442	9778.02
567.799	9875.64
568.156	9934.02
568.513	10008.53
568.87	10095.56
569.226	10236.44
569.583	10525.9
569.94	10621.5
570.297	10680.83
570.653	10621.65
571.01	10682.23
571.366	10910.16
571.723	10987.45
572.079	10964.9
572.436	10944.62
572.792	10923.82
573.148	11078.65
573.505	11287.41
573.861	11588.06
574.217	11643.59
574.573	11682.42
574.929	11609.95
575.285	11580.21
575.641	11706.16
575.997	11804.28
576.352	11904.24
576.708	11877.84
577.064	12047.55
577.42	12260.85
577.775	12512.14
578.131	12588.3
578.486	12518.49
578.842	12260.82
579.197	12264.31
579.552	12355.48
579.908	12567.97
580.263	12747.08
580.618	12629.01
580.973	12766.63
581.328	13182.33
581.683	13755.87
582.038	14068.66
582.393	13587.53
582.748	13047.08
583.103	12593.56
583.458	12312.38
583.812	12269.59
584.167	12510.68
584.522	12774.57
584.876	13045.31
585.231	13146.5
585.585	13209.8
585.939	13001.87
586.294	12922.07
586.648	12829.83
587.002	12734.9
587.356	12922.66
587.711	13206.42
588.065	13245.53
588.419	13293.56
588.773	13164.86
589.127	12939.11
589.48	12852.03
589.834	12598.22
590.188	12601.08
590.542	12688.94
590.895	12644.3
591.249	12755.04
591.603	12661.09
591.956	12656.29
592.309	12767.45
592.663	12909.61
593.016	13226.93
593.369	13432.71
593.723	13316.02
594.076	13213.4
594.429	13210.6
594.782	13392.1
595.135	13623.41
595.488	13691.09
595.841	13597.91
596.194	13357.88
596.547	13277.8
596.899	13112.7
597.252	13147.34
597.605	13231.51
597.957	13252.4
598.31	13269.41
598.662	13351.83
599.015	13384.66
599.367	13537.65
599.719	13545.97
600.072	13508.76
600.424	13504.71
600.776	13639.36
601.128	13723.53
601.48	13769.74
601.832	13799.06
602.184	13801.33
602.536	13833.71
602.888	13946.73
603.24	14136.4
603.592	14214.13
603.943	14116.02
604.295	13989.97
604.646	13815.35
604.998	13811.69
605.349	13890.14
605.701	13961
606.052	13989.64
606.404	13953.24
606.755	13988.35
607.106	14018.06
607.457	14024.35
607.808	14074.11
608.159	13994.68
608.51	13973.95
608.861	14072.85
609.212	14028.25
609.563	14149.77
609.914	14273.46
610.265	14304.63
610.615	14398.49
610.966	14392.88
611.316	14446.96
611.667	14579.06
612.017	14607.86
612.368	14390.03
612.718	14544.71
613.068	14501.65
613.419	14614.49
613.769	14608.8
614.119	14648.44
614.469	14717.53
614.819	14532.37
615.169	14603.96
615.519	14623.91
615.869	14612.78
616.219	14569.37
616.568	14471.58
616.918	14370.15
617.268	14487.85
617.617	14482.72
617.967	14539.64
618.316	14455.12
618.666	14469.25
619.015	14531.54
619.364	14461.3
619.714	14701.88
620.063	14819.06
620.412	14812.39
620.761	14745.9
621.11	14724.37
621.459	14594.98
621.808	14643.21
622.157	14843.11
622.506	14919.84
622.855	15015.5
623.203	15104.26
623.552	15169.27
623.901	15178.75
624.249	15063.11
624.598	15146.41
624.946	15080.56
625.295	15031.03
625.643	15009.41
625.991	15073.71
626.34	15051.04
626.688	15118.51
627.036	15199.48
627.384	15178.26
627.732	15250.64
628.08	15247.63
628.428	15203.45
628.776	15230.78
629.124	15234.51
629.471	15296.99
629.819	15371.55
630.167	15436.52
630.514	15437.84
630.862	15343.24
631.209	15441.43
631.557	15475.31
631.904	15476.31
632.251	15504.97
632.599	15464.85
632.946	15474.18
633.293	15559.21
633.64	15550.84
633.987	15591.3
634.334	15581.88
634.681	15492.19
635.028	15631.59
635.375	15669.32
635.722	15758.8
636.068	15834.29
636.415	15895.1
636.762	15958.73
637.108	15961.99
637.455	15861.08
637.801	15891.65
638.147	16018.63
638.494	15933.65
638.84	16115.35
639.186	16138.33
639.532	16074.71
639.878	16113.82
640.225	16117.23
640.571	16071.82
640.916	16057.56
641.262	16089.66
641.608	16012.17
641.954	16136.53
642.3	16168.1
642.645	16131.29
642.991	16237.6
643.337	16288.69
643.682	16301.04
644.028	16403.15
644.373	16421.7
644.718	16395.03
645.064	16351.17
645.409	16403.95
645.754	16478.01
646.099	16502.66
646.444	16481.86
646.789	16479.42
647.134	16370.64
647.479	16467.56
647.824	16600.19
648.169	16682.14
648.513	16777.33
648.858	16710.46
649.203	16742.05
649.547	16721.98
649.892	16684.78
650.236	16682.55
650.581	16615.43
650.925	16654.66
651.269	16719.42
651.613	16876.42
651.958	16875.26
652.302	16968
652.646	16959.77
652.99	16905.63
653.334	16923.43
653.678	16823.48
654.022	16890.44
654.365	16933.22
654.709	16898.76
655.053	16948.87
655.396	17500.56
655.74	23046.53
656.083	32555.98
656.427	38620.67
656.77	39237.38
657.114	30461.06
657.457	23064.76
657.8	19446.33
658.143	17943.03
658.486	17352.99
658.83	17226.54
659.173	17141.9
659.516	17093.27
659.858	17152.64
660.201	17192.07
660.544	17069.62
660.887	17039.29
661.229	17078.36
661.572	17049.04
661.915	17175.57
662.257	17193.91
662.6	17308.7
662.942	17198.91
663.284	17122.76
663.627	17224.67
663.969	17170.41
664.311	17239.47
664.653	17260.97
664.995	17204.49
665.337	17256.12
665.679	17236.13
666.021	17205.75
666.363	17074.2
666.705	17221.4
667.046	17251.72
667.388	17173.27
667.73	17205.39
668.071	17294.36
668.413	17225.38
668.754	17204.76
669.096	17151.85
669.437	17287.12
669.778	17257.9
670.119	17239.53
670.461	17168.37
670.802	17211
671.143	17209.42
671.484	17296.52
671.825	17311.54
672.165	17402.99
672.506	17511.22
672.847	17449.17
673.188	17455.5
673.528	17349.81
673.869	17208.33
674.21	17199.59
674.55	17253.82
674.89	17306.96
675.231	17327.69
675.571	17333.93
675.911	17275.44
676.252	17269.29
676.592	17406.88
676.932	17316.34
677.272	17226.57
677.612	17319.54
677.952	17420.94
678.292	17462.37
678.631	17410.61
678.971	17378.1
679.311	17434.92
679.651	17368.4
679.99	17411.2
680.33	17443.7
680.669	17439
681.009	17343.6
681.348	17228.4
681.687	17351.41
682.026	17327.25
682.366	17205.17
682.705	17308.89
683.044	17288.98
683.383	17313.53
683.722	17370.92
684.061	17329.88
684.4	17483.36
684.738	17534.58
685.077	17614.29
685.416	17525.99
685.754	17598.29
686.093	17581.01
686.431	17613.21
686.77	17478.19
687.108	17486.94
687.447	17356.61
687.785	17444.38
688.123	17362.1
688.461	17476.62
688.799	17431.18
689.137	17414.17
689.475	17461.88
689.813	17311.44
690.151	17362.31
690.489	17347.54
690.827	17411.75
691.164	17428.33
691.502	17366.77
691.84	17417.76
692.177	17414.51
692.515	17470.3
692.852	17478.49
693.189	17523.97
693.527	17474.54
693.864	17377.99
694.201	17385.06
694.538	17372.96
694.875	17388.35
695.212	17306.48
695.549	17286.84
695.886	17334.03
696.223	17357.4
696.56	17269.51
696.897	17239.64
697.233	17334.13
697.57	17390.3
697.906	17492.79
698.243	17455.34
698.579	17357.09
698.916	17363.73
699.252	17308.68
699.588	17378.59
699.924	17488.64
700.261	17321.58
700.597	17280.15
700.933	17333.75
701.269	17243.78
701.605	17314.32
701.941	17283.74
702.276	17289.56
702.612	17281.09
702.948	17247.84
703.283	17276.18
703.619	17197.53
703.954	17180.62
704.29	17183.14
704.625	17328.73
704.961	17289.53
705.296	17295.4
705.631	17219.5
705.966	17253.27
706.301	17159.47
706.637	17108.53
706.972	17327.9
707.306	17311.81
707.641	17303.29
707.976	17245.89
708.311	17195.89
708.646	17358.81
708.98	17318.65
709.315	17319.76
709.649	17304.39
709.984	17302.69
710.318	17054.88
710.653	17067.58
710.987	17039.84
711.321	17107.89
711.655	17115.28
711.989	17120.36
712.324	17082.77
712.658	16979.31
712.992	17104.41
713.325	17072.19
713.659	17132.06
713.993	17140.31
714.327	17091.56
714.66	17224.75
714.994	17119.46
715.328	17093.04
715.661	17093.22
715.994	17230.01
716.328	17108.98
716.661	17039.73
716.994	17018.12
717.328	16952.75
717.661	16917.32
717.994	16940.91
718.327	16928.31
718.66	16917.09
718.993	17042.47
719.325	17126.07
719.658	17130.81
719.991	17047.12
720.324	17027.89
720.656	16821.96
720.989	16726.06
721.321	16761.17
721.654	16701.95
721.986	16642.94
722.318	16614.52
722.651	16759.83
722.983	16662.84
723.315	16752.58
723.647	16680.85
723.979	16678.96
724.311	16762.19
724.643	16717.83
724.975	16709.24
725.307	16591.7
725.638	16692.77
725.97	16712.67
726.302	16827.13
726.633	16713.94
726.965	16688.36
727.296	16522.54
727.628	16434.33
727.959	16309.56
728.29	16348.38
728.621	16267.11
728.952	16332.34
729.284	16220.69
729.615	16360.73
729.945	16291.69
730.276	16268.45
730.607	16394.15
730.938	16336.13
731.269	16286.27
731.599	16317.47
731.93	16413.99
732.261	16345.2
732.591	16311.69
732.922	16153.97
733.252	16020.41
733.582	15989.77
733.912	16050.81
734.243	16066.79
734.573	16054.3
734.903	16141.26
735.233	15983.9
735.563	15993.54
735.893	16095.68
736.223	16068.38
736.552	15967.03
736.882	15813.28
737.212	15737.5
737.541	15761.2
737.871	15765.62
738.2	15693.62
738.53	15556.53
738.859	15431.06
739.188	15478.98
739.518	15441.17
739.847	15458.66
740.176	15439.17
740.505	15460.05
740.834	15424.75
741.163	15361.23
741.492	15246.97
741.821	15180.42
742.15	15021.4
742.478	15076.52
742.807	14899.24
743.136	14887.4
743.464	14898.23
743.793	14852.6
744.121	14710.05
744.449	14720.39
744.778	14874.57
745.106	14817.23
745.434	14692.42
745.762	14551.33
746.09	14519.89
746.418	14404.05
746.746	14383.18
747.074	14303.05
747.402	14428.41
747.73	14489.19
748.057	14477.03
748.385	14311.47
748.712	14289.78
749.04	14194.49
749.367	14270.27
749.695	14244.9
750.022	14293.98
750.349	14266.49
750.677	14178.25
751.004	14192.31
751.331	14211.47
751.658	14353.26
751.985	14246.44
752.312	14101.1
752.639	14045.71
752.966	14043.16
753.292	13861.86
753.619	13930.62
753.946	13879.13
754.272	13789.47
754.599	13763.02
754.925	13753.31
755.251	13649.83
755.578	13675.44
755.904	13636.18
756.23	13509.72
756.556	13550.88
756.882	13619.86
757.208	13591.41
757.534	13611.01
757.86	13682.58
758.186	13728.25
758.512	13535.55
758.838	13377.35
759.163	13276.44
759.489	13362.62
759.814	13288.51
760.14	13362.37
760.465	13400.11
760.791	13143.76
761.116	13109.16
761.441	13175.76
761.766	13138.29
762.092	12942.09
762.417	12857.67
762.742	12800.51
763.066	12701.02
763.391	12760.37
763.716	12804.17
764.041	12779.51
764.366	12718.82
764.69	12637.43
765.015	12641.82
765.339	12712
765.664	12762.99
765.988	12621.44
766.312	12448.81
766.637	12367.6
766.961	12400.36
767.285	12436.29
767.609	12277.3
767.933	12088.07
768.257	12229.45
768.581	12267.9
768.905	12369.61
769.229	12304.64
769.552	12209.61
769.876	12222.52
770.2	12180.13
770.523	12137.55
770.847	11944.48
771.17	11935.02
771.493	11969.43
771.817	11963.47
772.14	11809.73
772.463	11732.81
772.786	11771.9
773.109	11732.5
773.432	11749.92
773.755	11706.12
774.078	11610.27
774.401	11549.47
774.724	11397.3
775.046	11409.63
775.369	11331.63
775.692	11252.07
776.014	11178.54
776.336	11099.23
776.659	11110.88
776.981	11034.84
777.303	11038.22
777.626	10928.02
777.948	10911.59
778.27	10952.59
778.592	11014.48
778.914	11046.5
779.236	10902.02
779.557	10868.56
779.879	11056
780.201	11094.38
780.523	11100.01
780.844	10962.58
781.166	10985.16
781.487	11023.52
781.809	11001.08
782.13	11095.51
782.451	11016
782.772	11040.17
783.094	11006.35
783.415	11031.09
783.736	11046.54
784.057	11108.27
784.378	11108.27
784.698	10991.33
785.019	11055.53
785.34	10930.9
785.661	11024.83
785.981	11067.4
786.302	11058.24
786.622	11114.7
786.943	11204.01
787.263	11049.72
787.583	11104.48
787.903	11189.09
788.224	11185.38
788.544	11205.66
788.864	11142.83
789.184	11262.96
789.504	11177.64
789.824	11062.89
790.143	11040.57
790.463	10987.31
790.783	11022.64
791.102	11088.68
791.422	11099.91
791.741	11061.08
792.061	11049.84
792.38	11129.81
792.699	11107.47
793.019	11098.43
793.338	11002.26
793.657	10916.58
793.976	10966.82
794.295	10979.81
794.614	10937.19
794.933	10887.75
795.252	10992.88
795.57	10991.05
795.889	11011.68
796.208	10997.46
796.526	10778.22
796.845	10674.4
797.163	10625.1
797.482	10634.15
797.8	10699.8
798.118	10734.04
798.436	10785.95
798.754	10726.16
799.073	10695.1
799.391	10685.46
799.708	10651.82
800.026	10645.06
800.344	10632.12
800.662	10565.06
800.98	10466.64
801.297	10500.76
801.615	10619.96
801.932	10700.39
802.25	10619.26
802.567	10531.47
802.884	10411.23
803.202	10370.44
803.519	10320.16
803.836	10370.63
804.153	10276.93
804.47	10255
804.787	10141.5
805.104	10085.2
805.421	10081.05
805.737	10089.05
806.054	10059.16
806.371	10113.26
806.687	10077.95
807.004	10003.53
807.32	10021.23
807.637	9981.16
807.953	9959.36
808.269	9947.35
808.585	10016.46
808.902	9876.34
809.218	9786.5
809.534	9775.55
809.85	9726.15
810.165	9683.35
810.481	9643.83
810.797	9646.89
811.113	9688.94
811.428	9613.67
811.744	9616.26
812.059	9601.57
812.375	9516.89
812.69	9427.71
813.006	9356.34
813.321	9340.5
813.636	9365.63
813.951	9433.07
814.266	9325.19
814.581	9274.8
814.896	9227.1
815.211	9190.69
815.526	9126.06
815.841	9045.54
816.155	9056.78
816.47	9053.53
816.784	9037.85
817.099	8950.41
817.413	8901.29
817.728	8934.51
818.042	8910.57
818.356	8898.83
818.67	8877.16
818.985	8815.36
819.299	8747.18
819.613	8815
819.926	8753.54
820.24	8762.54
820.554	8827.17
820.868	8815.46
821.182	8691.75
821.495	8696.93
821.809	8506.97
822.122	8433.19
822.436	8511.87
822.749	8562.96
823.062	8571.75
823.376	8500.17
823.689	8466.29
824.002	8404.59
824.315	8310.35
824.628	8304.59
824.941	8324.46
825.254	8318.86
825.566	8246.13
825.879	8172.03
826.192	8072.94
826.504	8039.48
826.817	8126.41
827.129	8199.15
827.442	8083.79
827.754	8051.11
828.066	8017.58
828.379	7988.17
828.691	8051.86
829.003	7936.26
829.315	7906.28
829.627	7923.61
829.939	7880.77
830.251	7870.77
830.562	7819.43
830.874	7826.64
831.186	7746.09
831.497	7801.51
831.809	7749.87
832.12	7691.49
832.432	7672.51
832.743	7701.57
833.054	7638.34
833.365	7607.71
833.676	7613.98
833.988	7569.23
834.299	7513.9
834.61	7507.77
834.92	7518.6
835.231	7508.96
835.542	7435.06
835.853	7440.4
836.163	7467.77
836.474	7378.12
836.784	7229.49
837.095	7166.68
837.405	7180.04
837.715	7213
838.026	7152.83
838.336	7132.29
838.646	7050.46
838.956	6959.75
839.266	6929.09
839.576	6901.78
839.886	6960.4
840.195	7018.56
840.505	6953.37
840.815	6905.41
841.124	6861.18
841.434	6800.3
841.743	6810.07
842.053	6820.22
842.362	6796.9
842.671	6777.93
842.981	6767.72
843.29	6705.16
843.599	6625.06
843.908	6569.65
844.217	6551.23
844.526	6569.07
844.835	6573.61
845.143	6504.76
845.452	6398.5
845.761	6420.38
846.069	6356.39
846.378	6424.81
846.686	6389.92
846.995	6398.46
847.303	6382.88
847.611	6373.78
847.919	6276.42
848.227	6238.97
848.535	6234.39
848.843	6187.21
849.151	6116.72
849.459	6141.15
849.767	6104.02
850.075	6103.19
850.382	6012.05
850.69	5982.79
850.998	5978.48
851.305	5956.76
851.612	5964.99
851.92	5969.63
852.227	5990.06
852.534	5946.96
852.841	5931.14
853.148	5891.65
853.455	5911.19
853.762	5862.88
854.069	5881.37
854.376	5821.43
854.683	5764.08
854.99	5705.32
855.296	5667.64
855.603	5602.25
855.909	5585.34
856.216	5527.61
856.522	5498.97
856.828	5510.87
857.135	5468.42
857.441	5424.3
857.747	5400.69
858.053	5399.53
858.359	5336.28
858.665	5348.23
858.971	5308.75
859.276	5287.51
859.582	5256.76
859.888	5205.74
860.193	5164.11
860.499	5176.07
860.804	5185.72
861.11	5163.57
861.415	5188.69
861.72	5186.19
862.026	5130.41
862.331	5106.49
862.636	5032.4
862.941	4989.95
863.246	4967.18
863.551	4976.13
863.855	4966.13
864.16	4941.78
864.465	4890.43
864.769	4846.08
865.074	4797.25
865.378	4768.37
865.683	4774.02
865.987	4818.24
866.291	4759.47
866.596	4741.16
866.9	4670.16
867.204	4627.67
867.508	4608.87
867.812	4609.31
868.116	4618.71
868.42	4614.37
868.723	4585.46
869.027	4575.62
869.331	4520.54
869.634	4493.45
869.938	4443.63
870.241	4467.01
870.544	4447.8
870.848	4417.06
871.151	4382.11
871.454	4355.57
871.757	4328.44
872.06	4308.99
872.363	4281.22
872.666	4246.19
872.969	4218.08
873.272	4250.95
873.574	4270.03
873.877	4273.06
874.18	4229.66
874.482	4206.15
874.785	4194.67
875.087	4133.73
875.389	4128.93
875.692	4127.87
875.994	4108.59
876.296	4073.19
876.598	4043.15
876.9	3991.55
877.202	3954.52
877.504	3926.84
877.805	3924.81
878.107	3928.11
878.409	3892.49
878.71	3883.64
879.012	3844.98
879.313	3786.29
879.615	3793.74
879.916	3748.65
880.217	3739.96
880.518	3742.53
880.82	3743.15
881.121	3720.66
881.422	3725.23
881.723	3693.88
882.023	3638.94
882.324	3602.61
882.625	3578.34
882.926	3573.71
883.226	3611.38
883.527	3585.35
883.827	3601.82
884.128	3602.71
884.428	3588.73
884.728	3526.59
885.028	3493.57
885.328	3464.5
885.629	3444.31
885.929	3449.33
886.228	3450.92
886.528	3406.34
886.828	3384.02
887.128	3350.44
887.427	3293.14
887.727	3256.78
888.027	3230.06
888.326	3240.08
888.625	3250.27
888.925	3228.24
889.224	3223.24
889.523	3181.44
889.822	3161.83
890.121	3160.49
890.42	3157.46
890.719	3175.8
891.018	3148.64
891.317	3146.33
891.616	3128.48
891.914	3122.37
892.213	3110.69
892.512	3067.06
892.81	3047.82
893.108	3045.49
893.407	3067.78
893.705	3078.69
894.003	3060.61
894.301	3050.27
894.599	3059.92
894.897	3033.27
895.195	3002.38
895.493	2976.88
895.791	2977.87
896.089	2978.59
896.386	2985.77
896.684	2992.82
896.981	2980.12
897.279	2965.4
897.576	2984.85
897.874	2972.34
898.171	2978.8
898.468	2973.89
898.765	2967.81
899.062	2985.42
899.359	2977.4
899.656	2976.57
899.953	2951.13
900.25	2937.89
900.547	2924.16
900.843	2926.08
901.14	2927.14
901.436	2935.19
901.733	2948.49
902.029	2948.35
902.325	2958.83
902.622	2920.31
902.918	2913.88
903.214	2897.3
903.51	2866.35
903.806	2858.76
904.102	2861.94
904.398	2903.15
904.694	2928.11
904.989	2975.48
905.285	2965.52
905.581	2930.59
905.876	2912.21
906.171	2889.54
906.467	2881.39
906.762	2895.19
907.057	2897.73
907.353	2904.54
907.648	2879.29
907.943	2856.07
908.238	2830.29
908.533	2813.59
908.827	2806.49
909.122	2779.27
909.417	2751.42
909.711	2746.53
910.006	2755.09
910.301	2761.47
910.595	2784.52
910.889	2788.46
911.184	2742.03
911.478	2731.08
911.772	2725.77
912.066	2704.86
912.36	2696.57
912.654	2680.23
912.948	2670.98
913.242	2693.03
913.536	2663.18
913.829	2642.09
914.123	2618.69
914.416	2583.58
914.71	2582.92
915.003	2597.63
915.297	2600.6
915.59	2586.62
915.883	2563.23
916.176	2557.04
916.469	2539.19
916.762	2526.26
917.055	2517.23
917.348	2505.77
917.641	2507.1
917.934	2490.76
918.226	2485.25
918.519	2475.37
918.811	2477.97
919.104	2461.88
919.396	2438.07
919.689	2414.61
919.981	2387.34
920.273	2367.28
920.565	2372.42
920.857	2367.76
921.149	2370.36
921.441	2365.01
921.733	2349.82
922.025	2325.11
922.316	2297.58
922.608	2294.29
922.9	2279.17
923.191	2280.9
923.483	2289.38
923.774	2271.14
924.065	2257.79
924.357	2240.23
924.648	2201.08
924.939	2185.59
925.23	2160.76
925.521	2146.87
925.812	2132.14
926.102	2126.83
926.393	2120.24
926.684	2127.6
926.975	2119.46
927.265	2101.47
927.556	2082.04
927.846	2042.26
928.136	2015.18
928.427	1995.39
928.717	1981.61
929.007	1986.74
929.297	1983.04
929.587	1981.72
929.877	1980.64
930.167	1973.34
930.457	1952.48
930.746	1922.92
931.036	1908.01
931.325	1885.72
931.615	1867.54
931.904	1858.7
932.194	1840.66
932.483	1838.77
932.772	1852.43
933.062	1857.48
933.351	1840.76
933.64	1816.27
933.929	1812.43
934.218	1795.1
934.506	1777.59
934.795	1771.1
935.084	1765.29
935.372	1747.51
935.661	1732.76
935.949	1721.41
936.238	1719.4
936.526	1690.22
936.815	1672.22
937.103	1663.91
937.391	1644.78
937.679	1642.97
937.967	1634.93
938.255	1628.74
938.543	1637
938.831	1632.67
939.118	1629.07
939.406	1605.7
939.693	1575.99
939.981	1553.47
940.268	1538.98
940.556	1524.04
940.843	1522.35
941.13	1523.9
941.418	1520.58
941.705	1511.97
941.992	1505.68
942.279	1495.16
942.566	1479.87
942.852	1463.41
943.139	1448.9
943.426	1441.1
943.712	1437.07
943.999	1431.99
944.285	1429.69
944.572	1420.72
944.858	1415.47
945.144	1412.51
945.431	1397.55
945.717	1381.64
946.003	1369.76
946.289	1349.94
946.575	1340.63
946.861	1328.24
947.146	1319.37
947.432	1313.87
947.718	1303.93
948.003	1295
948.289	1284.38
948.574	1272.7
948.86	1266.92
949.145	1255.27
949.43	1242.23
949.715	1232.09
950	1228.3
950.285	1227.24
950.57	1237.31
950.855	1235.06
951.14	1225.56
951.425	1217.93
951.709	1206.08
951.994	1193.17
952.278	1184.65
952.563	1169.29
952.847	1158.97
953.132	1156.89
953.416	1157.08
953.7	1157.35
953.984	1153.19
954.268	1141.16
954.552	1126.55
954.836	1111.89
955.12	1102.24
955.404	1095.13
955.687	1079.5
955.971	1070.16
956.254	1065.39
956.538	1062.1
956.821	1061.24
957.105	1055.21
957.388	1052.66
957.671	1036.65
957.954	1028.37
958.237	1018.85
958.52	1004.84
958.803	996.68
959.086	991.13
959.369	986.33
959.652	987.85
959.934	983.44
960.217	982.39
960.499	982.79
960.782	977.54
961.064	974.59
961.346	965.15
961.629	957.91
961.911	947.17
962.193	939.28
962.475	931.2
962.757	930.09
963.039	925.21
963.32	927.99
963.602	923.34
963.884	917.48
964.165	911.3
964.447	896.36
964.728	883.92
965.01	876.01
965.291	862.61
965.572	855.29
965.853	849.42
966.134	843.59
966.415	840.74
966.696	836.4
966.977	828.14
967.258	828.22
967.539	815.31
967.819	809.07
968.1	801.87
968.38	796.48
968.661	794.12
968.941	790.74
969.222	789.69
969.502	785
969.782	783.99
970.062	777.38
970.342	774.07
970.622	769.34
970.902	760.72
971.182	749.6
971.462	741.27
971.741	736.65
972.021	728.87
972.3	728.02
972.58	730.71
972.859	730.69
973.138	730.41
973.418	730.28
973.697	723.22
973.976	716.79
974.255	712.79
974.534	704.29
974.813	698.06
975.092	689.05
975.37	685.62
975.649	682.3
975.928	680.21
976.206	676.97
976.485	677.04
976.763	673.62
977.041	667.82
977.32	665.68
977.598	657.89
977.876	652.29
978.154	648.03
978.432	643.7
978.71	640.44
978.988	638.74
979.265	633.57
979.543	632.74
979.821	626.03
980.098	625.22
980.376	620.02
980.653	613.42
980.93	609.76
981.208	603.5
981.485	600.05
981.762	600.23
982.039	596.44
982.316	594.24
982.593	591.22
982.87	591.21
983.146	587.72
983.423	581.73
983.7	582
983.976	574.81
984.253	569.82
984.529	565.26
984.805	562.76
985.082	556.54
985.358	555.05
985.634	550.96
985.91	550.64
986.186	550.62
986.462	545.54
986.738	545.24
987.013	543.38
987.289	538.04
987.565	536.45
987.84	529.25
988.116	525.09
988.391	522.44
988.666	519.98
988.942	516.91
989.217	513.81
989.492	514.18
989.767	512.61
990.042	509.51
990.317	506.59
990.592	504.71
990.866	500.8
991.141	500.48
991.416	496.84
991.69	494.58
991.964	490.62
992.239	485.6
992.513	486.6
992.787	482.98
993.062	480.8
993.336	481.52
993.61	479.92
993.884	475.85
994.158	471.99
994.431	470.59
994.705	466.92
994.979	464.82
995.252	463.24
995.526	459.64
995.799	458.09
996.073	459.99
996.346	455.54
996.619	458.21
996.892	455.39
997.165	453.44
997.438	452.03
997.711	448.25
997.984	447.57
998.257	443.18
998.53	439.33
998.802	437.27
999.075	439.79
999.347	435.36
999.62	433.52
999.892	433.78
1000.165	431.35
1000.437	429.28
1000.709	427.11
1000.981	428.11
1001.253	423.64
1001.525	424.08
1001.797	420.23
1002.068	418.97
1002.34	417.79
1002.612	417.43
1002.883	415.85
1003.155	415.25
1003.426	413.7
1003.698	412.85
1003.969	410.14
1004.24	409.71
1004.511	409.48
1004.782	405.33
1005.053	404.58
1005.324	403.26
1005.595	402.91
1005.866	401.98
1006.136	400.46
1006.407	399.68
1006.678	399.16
1006.948	398.1
1007.218	398.96
1007.489	397.09
1007.759	392.42
1008.029	393.98
1008.299	394.33
1008.569	391.07
1008.839	391.7
1009.109	391.4
1009.379	389.58
1009.649	387.37
1009.918	385.18
1010.188	384.2
1010.458	384.4
1010.727	384.8
1010.996	382.01
1011.266	383.21
1011.535	382.56
1011.804	381.3
1012.073	379.98
1012.342	381.14
1012.611	377.5
1012.88	376.93
1013.149	377.61
1013.417	373.5
1013.686	374.78
1013.955	375.41
1014.223	374.59
1014.492	372.27
1014.76	373.14
1015.028	372.17
1015.296	371.57
1015.565	371.02
1015.833	371.35
1016.101	369.28
1016.368	369.21
1016.636	366.66
1016.904	368.59
1017.172	369.63
1017.439	368.5
1017.707	365.48
1017.974	365.29
1018.242	363.82
1018.509	366.08
1018.776	365.12
1019.044	363.66
1019.311	364.96
1019.578	363.27
1019.845	362.68
1020.112	363.99
1020.378	363.99
1020.645	363.99
