Data from 190618_Kr_35K_no_film_FLMS138901_16-16-45-073.txt Node
Date: Tue Jun 18 16:16:45 EDT 2019
User: pSAM
Spectrometer: FLMS13890
Trigger mode: 0
Integration Time (sec): 5.000000E-3
Scans to average: 1000
Electric dark correction enabled: true
Nonlinearity correction enabled: false
Boxcar width: 0
XAxis mode: Wavelengths
Number of Pixels in Spectrum: 2048
>>>>>Begin Spectral Data<<<<<
342.097	-56.98
342.483	-56.98
342.868	-56.98
343.254	-100.74
343.639	-102.47
344.025	-100.98
344.41	-97.98
344.796	-90.19
345.181	-79.86
345.567	-65.96
345.952	-52.83
346.337	-36.19
346.722	-19.23
347.107	-0.92
347.493	16.74
347.878	39.28
348.263	57.82
348.648	77.93
349.033	97.33
349.418	118.22
349.802	136.83
350.187	152.86
350.572	171.74
350.957	240.26
351.342	387.86
351.726	410.98
352.111	430.22
352.495	442.47
352.88	456.86
353.264	470.3
353.649	483.22
354.033	495.16
354.418	505.74
354.802	514.23
355.186	521.67
355.57	530.26
355.955	538.44
356.339	543.98
356.723	548.09
357.107	554
357.491	572.61
357.875	560.32
358.259	564.13
358.643	564.98
359.026	568.31
359.41	568.82
359.794	569.69
360.178	574.62
360.561	571.03
360.945	569.88
361.329	571.94
361.712	573.99
362.096	574.71
362.479	572.9
362.862	575.44
363.246	572.89
363.629	572.23
364.012	573.02
364.396	571.63
364.779	572.2
365.162	574.56
365.545	575.13
365.928	572.32
366.311	574.75
366.694	580.33
367.077	579.93
367.46	581.61
367.843	580.2
368.226	583.37
368.608	585.56
368.991	586.56
369.374	586.65
369.756	585.29
370.139	585.17
370.521	585.77
370.904	588.91
371.286	589.6
371.669	589.87
372.051	591.65
372.433	596.45
372.816	596.39
373.198	597.05
373.58	601
373.962	601.95
374.344	604.62
374.726	607.2
375.108	608.42
375.49	614.38
375.872	616.28
376.254	613.55
376.636	616.35
377.018	619.64
377.399	621.27
377.781	621.74
378.163	620.39
378.544	620.54
378.926	624.9
379.307	627.93
379.689	632.86
380.07	636.82
380.452	638.78
380.833	643.45
381.214	645.32
381.596	649.47
381.977	653.7
382.358	661.98
382.739	676.6
383.12	679.7
383.501	678.64
383.882	672.46
384.263	671.05
384.644	673.78
385.025	678.06
385.406	682.65
385.787	684.8
386.167	687.96
386.548	692.77
386.929	699.64
387.309	709.49
387.69	716.14
388.07	727.94
388.451	730.59
388.831	734.26
389.211	729.55
389.592	723.71
389.972	718.45
390.352	723.01
390.733	722.8
391.113	727.23
391.493	728.78
391.873	743.15
392.253	748.14
392.633	763.26
393.013	771.03
393.393	772.87
393.772	766.88
394.152	774.73
394.532	774.92
394.912	782.84
395.291	778.34
395.671	780.07
396.05	773.09
396.43	774.47
396.809	777.22
397.189	787.23
397.568	796.81
397.948	798.89
398.327	808.97
398.706	816.47
399.085	819.57
399.465	818.01
399.844	814.86
400.223	804.91
400.602	809.25
400.981	807.95
401.36	812
401.739	810.59
402.117	816.91
402.496	808.03
402.875	816.33
403.254	826.31
403.632	821.04
404.011	834.51
404.39	842.5
404.768	846.84
405.147	863.52
405.525	871.6
405.903	876.21
406.282	877.19
406.66	875.87
407.038	866.19
407.417	859.04
407.795	858.86
408.173	862.72
408.551	867.31
408.929	872.86
409.307	874.51
409.685	882.98
410.063	887.42
410.441	886.55
410.818	893.27
411.196	892.14
411.574	904.68
411.952	910.76
412.329	923.46
412.707	942.9
413.084	955.59
413.462	956.82
413.839	959.09
414.217	947.47
414.594	950.52
414.971	951.03
415.349	958.17
415.726	959.57
416.103	950.11
416.48	954.12
416.857	960.71
417.234	974.89
417.611	977.75
417.988	980.07
418.365	968.77
418.742	974.46
419.119	981.11
419.495	987.07
419.872	984.45
420.249	1012.1
420.625	1020.65
421.002	1036.4
421.379	1049.38
421.755	1065.73
422.131	1085.6
422.508	1086.02
422.884	1088.81
423.26	1095.09
423.637	1110.61
424.013	1083.4
424.389	1074.06
424.765	1064.19
425.141	1073.54
425.517	1069.11
425.893	1063.45
426.269	1061.28
426.645	1065.9
427.021	1103.27
427.397	1122.68
427.772	1135.72
428.148	1129.09
428.524	1127.89
428.899	1112.88
429.275	1129.42
429.651	1148.94
430.026	1170.47
430.401	1181.01
430.777	1180.6
431.152	1180.14
431.527	1163.22
431.903	1163.8
432.278	1160.24
432.653	1162.07
433.028	1170.41
433.403	1202.56
433.778	1240.14
434.153	1241.6
434.528	1227.08
434.903	1219.78
435.278	1237.5
435.653	1247.42
436.027	1249.68
436.402	1262.19
436.777	1266.74
437.151	1272.17
437.526	1279.64
437.9	1286.12
438.275	1306.86
438.649	1300.25
439.023	1310.02
439.398	1311.86
439.772	1307.77
440.146	1313.96
440.52	1330.05
440.895	1359.45
441.269	1408.29
441.643	1434.49
442.017	1422.62
442.391	1414.17
442.765	1407.69
443.138	1397.43
443.512	1423.1
443.886	1431.53
444.26	1434.88
444.633	1443.06
445.007	1446.03
445.38	1449.64
445.754	1452.1
446.127	1464.9
446.501	1461.18
446.874	1457.47
447.248	1447.06
447.621	1467.04
447.994	1458.72
448.367	1467.84
448.741	1471.39
449.114	1463.55
449.487	1480.65
449.86	1486.12
450.233	1489.27
450.606	1484.01
450.978	1480.95
451.351	1502.46
451.724	1486.97
452.097	1487.24
452.469	1500.11
452.842	1496.25
453.215	1503.8
453.587	1505.1
453.96	1519.11
454.332	1519.72
454.704	1532.02
455.077	1541.68
455.449	1557.21
455.821	1551.85
456.194	1572.97
456.566	1570.77
456.938	1596.55
457.31	1612.42
457.682	1646.17
458.054	1651.24
458.426	1668.77
458.798	1681.17
459.17	1688.85
459.541	1688.48
459.913	1666.13
460.285	1668.55
460.656	1670.73
461.028	1664.94
461.399	1686.15
461.771	1685.23
462.142	1706.6
462.514	1720.47
462.885	1741.75
463.256	1794.83
463.628	1815.7
463.999	1835.62
464.37	1880.65
464.741	1890.6
465.112	1871.79
465.483	1885.35
465.854	1901.4
466.225	1886.59
466.596	1880.78
466.967	1904.02
467.338	1905.79
467.708	1940.27
468.079	1956.34
468.45	1966.59
468.82	1965.88
469.191	1970.16
469.561	1968.84
469.932	1986.65
470.302	1974.61
470.673	2015.45
471.043	2033.15
471.413	2054.28
471.783	2089.53
472.154	2121.74
472.524	2147.19
472.894	2206.66
473.264	2237.69
473.634	2242.54
474.004	2244.94
474.374	2287.46
474.743	2301.1
475.113	2351.7
475.483	2376.87
475.853	2407.19
476.222	2429.14
476.592	2487.43
476.961	2478.89
477.331	2490.54
477.7	2528.63
478.07	2605.47
478.439	2611.89
478.808	2645.38
479.178	2665.23
479.547	2714.78
479.916	2739.62
480.285	2802.71
480.654	2815.39
481.023	2857.05
481.392	2891.14
481.761	2928.02
482.13	2958.77
482.499	2995.31
482.867	3023.75
483.236	3095.09
483.605	3157.55
483.973	3208.63
484.342	3280.05
484.71	3327.82
485.079	3414.41
485.447	3952.49
485.816	4391.04
486.184	4592.18
486.552	4215.22
486.921	3819.21
487.289	3609.22
487.657	3608.42
488.025	3607.21
488.393	3619
488.761	3655.45
489.129	3722.4
489.497	3738.27
489.865	3828.5
490.233	3860.33
490.6	3927.45
490.968	3923.69
491.336	3940.67
491.703	3954.82
492.071	3998.63
492.438	4040.33
492.806	4084.74
493.173	4160.5
493.541	4182.66
493.908	4181.7
494.275	4190.25
494.642	4213.8
495.01	4231.06
495.377	4261.14
495.744	4287.63
496.111	4367.98
496.478	4442.38
496.845	4438.51
497.211	4429.81
497.578	4448.07
497.945	4479.88
498.312	4553.58
498.678	4612.81
499.045	4683.51
499.412	4670.61
499.778	4685.04
500.145	4697.95
500.511	4707.98
500.878	4773.57
501.244	4821.83
501.61	4846.36
501.976	4847.6
502.343	4866.71
502.709	4937.07
503.075	4949.31
503.441	4958.07
503.807	4972.73
504.173	4962.06
504.539	4975.08
504.905	5013.43
505.27	5064.85
505.636	5084.17
506.002	5141.15
506.367	5154.52
506.733	5168.39
507.099	5148.95
507.464	5183.63
507.829	5201.8
508.195	5274.61
508.56	5298.45
508.926	5304.9
509.291	5296.9
509.656	5309.9
510.021	5338.26
510.386	5384.07
510.751	5409.9
511.116	5451.55
511.481	5478.91
511.846	5511.46
512.211	5516.96
512.576	5546.04
512.941	5567.79
513.305	5578.92
513.67	5609.22
514.035	5630.68
514.399	5672.18
514.764	5653.89
515.128	5675.43
515.493	5721.56
515.857	5750.4
516.221	5751.81
516.585	5796.62
516.95	5811.41
517.314	5827.42
517.678	5823.04
518.042	5860.29
518.406	5941.79
518.77	5934.19
519.134	5968.8
519.498	6040.88
519.862	6044.07
520.225	5997.98
520.589	6050.19
520.953	6082.04
521.316	6129.89
521.68	6160.32
522.043	6175.03
522.407	6153.74
522.77	6197.17
523.134	6276.44
523.497	6256.22
523.86	6317.16
524.223	6355.14
524.587	6381.98
524.95	6412.23
525.313	6463.78
525.676	6501.42
526.039	6482.65
526.402	6507.82
526.765	6586.99
527.127	6623.6
527.49	6662.24
527.853	6704.76
528.215	6691.63
528.578	6754.86
528.941	6777.58
529.303	6825.51
529.666	6830.99
530.028	6872.49
530.39	6901.94
530.753	6910.45
531.115	6928
531.477	6980.62
531.839	7025.58
532.201	7060.45
532.564	7138.78
532.926	7167.79
533.287	7267.46
533.649	7276.14
534.011	7338.13
534.373	7376.94
534.735	7404.87
535.097	7430.34
535.458	7485.78
535.82	7512.4
536.181	7534.09
536.543	7569.01
536.904	7546.98
537.266	7643.59
537.627	7716.28
537.988	7749.87
538.35	7809.42
538.711	7863.15
539.072	7912.14
539.433	7920.84
539.794	7987.96
540.155	8012.83
540.516	8035.17
540.877	8039.94
541.238	8112.9
541.599	8187.98
541.959	8249.13
542.32	8319.64
542.681	8373.31
543.041	8369.16
543.402	8408.73
543.762	8458.3
544.123	8448.5
544.483	8515.12
544.844	8558.98
545.204	8587.22
545.564	8615.83
545.924	8636.42
546.284	8657.62
546.644	8699.76
547.004	8721.57
547.364	8785.4
547.724	8859.29
548.084	8865.04
548.444	8926.35
548.804	8887.78
549.164	8927.4
549.523	8947.23
549.883	8963.94
550.242	9010.84
550.602	9054.59
550.961	9072.06
551.321	9036.38
551.68	9097.37
552.04	9155.08
552.399	9287.4
552.758	9282.9
553.117	9204.82
553.476	9325.96
553.835	9386.8
554.194	9437.7
554.553	9363.74
554.912	9366.93
555.271	9414.43
555.63	9480.4
555.989	9527.88
556.347	9556.4
556.706	9621.31
557.065	9631.16
557.423	9679.46
557.782	9689.95
558.14	9687.64
558.499	9716.16
558.857	9727.16
559.215	9742.06
559.573	9806.22
559.932	9845.54
560.29	9922.63
560.648	9941.79
561.006	10044.47
561.364	10056.12
561.722	10056.42
562.08	10112.43
562.438	10076.47
562.795	10174.34
563.153	10199.56
563.511	10209.81
563.868	10241.15
564.226	10319.99
564.583	10359.23
564.941	10314.71
565.298	10408.73
565.656	10384.4
566.013	10408.94
566.37	10488.64
566.727	10649.49
567.085	10754.74
567.442	10810.42
567.799	10886.77
568.156	10925.22
568.513	11046.48
568.87	11120.33
569.226	11378.97
569.583	11620.53
569.94	11689.3
570.297	11731.58
570.653	11687.89
571.01	11854.64
571.366	12061.05
571.723	12167.42
572.079	12113.28
572.436	12057.44
572.792	12025.81
573.148	12235.77
573.505	12423.85
573.861	12791.04
574.217	12766.89
574.573	12760.36
574.929	12738.13
575.285	12724.35
575.641	12847.29
575.997	12964.68
576.352	13062.79
576.708	13117.15
577.064	13296.21
577.42	13597.34
577.775	13786.28
578.131	13808.02
578.486	13580.25
578.842	13267.7
579.197	13374.93
579.552	13543.77
579.908	13826.85
580.263	14029.86
580.618	13798.7
580.973	13995.66
581.328	14768.99
581.683	15429.18
582.038	15487.17
582.393	14619.65
582.748	13977.6
583.103	13522.72
583.458	13353.54
583.812	13442.48
584.167	13843.41
584.522	14121.51
584.876	14385.57
585.231	14465.22
585.585	14469.48
585.939	14149.6
586.294	13981.56
586.648	13878.46
587.002	13885.11
587.356	14207
587.711	14599.98
588.065	14551.21
588.419	14598.35
588.773	14300.29
589.127	13975.67
589.48	13915.73
589.834	13832.41
590.188	13888.62
590.542	13893.42
590.895	13712.27
591.249	13783.01
591.603	13741.04
591.956	13821.66
592.309	13987.07
592.663	14275.24
593.016	14667.33
593.369	14770.92
593.723	14559.38
594.076	14482.29
594.429	14452.49
594.782	14731.1
595.135	14973.05
595.488	15002.2
595.841	14766.33
596.194	14521.35
596.547	14404.15
596.899	14331.36
597.252	14383.79
597.605	14493.12
597.957	14499.74
598.31	14536.84
598.662	14710.85
599.015	14799.54
599.367	14850.22
599.719	14713.12
600.072	14801.91
600.424	14878.93
600.776	14959.14
601.128	14991.17
601.48	14983.3
601.832	15040.54
602.184	15045.64
602.536	15210.3
602.888	15342.94
603.24	15596.95
603.592	15658.21
603.943	15441.89
604.295	15202.49
604.646	15003.89
604.998	15115.35
605.349	15226.12
605.701	15343.84
606.052	15290.97
606.404	15205.39
606.755	15306.81
607.106	15505.62
607.457	15423.65
607.808	15421.45
608.159	15338.99
608.51	15286.16
608.861	15322.08
609.212	15278.37
609.563	15453.03
609.914	15616.69
610.265	15610.95
610.615	15724.44
610.966	15687.7
611.316	15857.79
611.667	15903.11
612.017	15930.37
612.368	15653.3
612.718	15786.2
613.068	15798.57
613.419	15918.84
613.769	15921.8
614.119	15944.3
614.469	16024.19
614.819	15890.9
615.169	15924.18
615.519	16049.62
615.869	15934.05
616.219	15876.13
616.568	15708.03
616.918	15700.44
617.268	15862.34
617.617	15925.1
617.967	15973.09
618.316	15869.44
618.666	15841.3
619.015	15790.19
619.364	15831.58
619.714	16213.96
620.063	16285.05
620.412	16316.53
620.761	16154.48
621.11	16126.24
621.459	15977.72
621.808	16124.28
622.157	16388.65
622.506	16415.75
622.855	16500.16
623.203	16591.04
623.552	16580.2
623.901	16532.88
624.249	16474.22
624.598	16594.53
624.946	16535.36
625.295	16405.98
625.643	16273.87
625.991	16389.73
626.34	16426.68
626.688	16457.37
627.036	16564.75
627.384	16517.41
627.732	16649.06
628.08	16624.34
628.428	16494.04
628.776	16586.36
629.124	16695.87
629.471	16793.62
629.819	16806.26
630.167	16719.98
630.514	16717.13
630.862	16658.55
631.209	16676.23
631.557	16699.44
631.904	16726.75
632.251	16767.87
632.599	16706.74
632.946	16892.13
633.293	17074.53
633.64	16989.54
633.987	17016.43
634.334	16940.39
634.681	16883.12
635.028	16983.29
635.375	16994.12
635.722	17060.76
636.068	17135.79
636.415	17221.34
636.762	17331.27
637.108	17428.39
637.455	17343.99
637.801	17309.37
638.147	17412.51
638.494	17398.61
638.84	17485.03
639.186	17421.38
639.532	17400.87
639.878	17457.5
640.225	17487.82
640.571	17520.3
640.916	17511.79
641.262	17566.69
641.608	17563.13
641.954	17609.53
642.3	17619.6
642.645	17635.53
642.991	17673.41
643.337	17718.28
643.682	17764.6
644.028	17817.3
644.373	17852.08
644.718	17805.45
645.064	17828.57
645.409	17898.4
645.754	17899.44
646.099	17907.83
646.444	17860.5
646.789	17944.06
647.134	17849.03
647.479	17850.59
647.824	17937.33
648.169	18011.23
648.513	18114.29
648.858	18021.07
649.203	18086.92
649.547	18118.53
649.892	18083.8
650.236	18131.69
650.581	18112.53
650.925	18090.12
651.269	18186.54
651.613	18299.46
651.958	18320.03
652.302	18339.82
652.646	18351.82
652.99	18255.89
653.334	18312.96
653.678	18204.01
654.022	18312.68
654.365	18343.43
654.709	18372.84
655.053	18361.95
655.396	18857.35
655.74	27154.66
656.083	40716.77
656.427	45261.47
656.77	41279.19
657.114	26093.8
657.457	20682.74
657.8	19239.65
658.143	18898.25
658.486	18808.07
658.83	18806.22
659.173	18681.56
659.516	18706.49
659.858	18636.32
660.201	18574.07
660.544	18565.67
660.887	18631.3
661.229	18673.42
661.572	18604.01
661.915	18669.12
662.257	18652.87
662.6	18696
662.942	18626.88
663.284	18562.68
663.627	18626.36
663.969	18633.6
664.311	18723.48
664.653	18710.06
664.995	18626.02
665.337	18709.37
665.679	18744.86
666.021	18755.58
666.363	18583.48
666.705	18629.79
667.046	18668.53
667.388	18562.58
667.73	18655.03
668.071	18665.13
668.413	18563.45
668.754	18576.82
669.096	18455.35
669.437	18655.62
669.778	18557.86
670.119	18581.9
670.461	18631.25
670.802	18713.02
671.143	18627.29
671.484	18687.56
671.825	18741.74
672.165	18793.6
672.506	18849.72
672.847	18824.62
673.188	18847.96
673.528	18659.11
673.869	18482.05
674.21	18552.66
674.55	18648.31
674.89	18617.58
675.231	18663.29
675.571	18717.35
675.911	18747.59
676.252	18764.42
676.592	18834.6
676.932	18678.67
677.272	18578.8
677.612	18572.7
677.952	18597.94
678.292	18714.1
678.631	18690.36
678.971	18607.33
679.311	18699.81
679.651	18693.52
679.99	18638.98
680.33	18635.87
680.669	18566.42
681.009	18536.71
681.348	18675.3
681.687	18766.35
682.026	18802.11
682.366	18740.35
682.705	18748.48
683.044	18798.39
683.383	18817.19
683.722	18826.15
684.061	18721.57
684.4	18729.19
684.738	18805.85
685.077	18857.34
685.416	18873.83
685.754	18992.41
686.093	18959.87
686.431	19026.91
686.77	18867.57
687.108	18918.67
687.447	18848.22
687.785	18862.97
688.123	18895.11
688.461	18993.79
688.799	18757.26
689.137	18724.54
689.475	18734.77
689.813	18526.17
690.151	18656.34
690.489	18697.89
690.827	18735.55
691.164	18777.49
691.502	18767.31
691.84	18740.65
692.177	18861.84
692.515	18889.21
692.852	18776.02
693.189	18766.76
693.527	18745.39
693.864	18715.99
694.201	18732.58
694.538	18665.32
694.875	18664.28
695.212	18645.44
695.549	18805.8
695.886	18848.31
696.223	18868.35
696.56	18930.21
696.897	18782.25
697.233	18902.75
697.57	19039.2
697.906	19130.03
698.243	18944.55
698.579	18649.53
698.916	18738.26
699.252	18747.06
699.588	18753.02
699.924	18815.1
700.261	18769.92
700.597	18747.11
700.933	18742.02
701.269	18580.44
701.605	18656.32
701.941	18537.57
702.276	18613.72
702.612	18582.15
702.948	18549.81
703.283	18584.84
703.619	18633.36
703.954	18577.2
704.29	18361.36
704.625	18393.42
704.961	18437.53
705.296	18594.01
705.631	18507.29
705.966	18465.09
706.301	18472.37
706.637	18563.37
706.972	18741.38
707.306	18696.5
707.641	18709.67
707.976	18630.11
708.311	18658.58
708.646	18659.13
708.98	18559.95
709.315	18559.87
709.649	18526.02
709.984	18520.56
710.318	18368.25
710.653	18496.09
710.987	18615.67
711.321	18585.83
711.655	18518.77
711.989	18539.68
712.324	18604.83
712.658	18465.96
712.992	18514.58
713.325	18423.79
713.659	18414.02
713.993	18269.23
714.327	18318.18
714.66	18429
714.994	18332.64
715.328	18397.36
715.661	18504.42
715.994	18511.48
716.328	18287.32
716.661	18322.15
716.994	18390.33
717.328	18274.36
717.661	18263.27
717.994	18247.96
718.327	18274.55
718.66	18302.73
718.993	18353.42
719.325	18348.07
719.658	18281.33
719.991	18308.25
720.324	18291.87
720.656	18021.53
720.989	17955.05
721.321	18024.47
721.654	18021.93
721.986	18017.66
722.318	17990.06
722.651	17992.12
722.983	17876.16
723.315	17919.2
723.647	17920.24
723.979	17896.21
724.311	17870.63
724.643	17836.54
724.975	17875.4
725.307	17875.08
725.638	17873.66
725.97	17768.33
726.302	17868.35
726.633	17780.07
726.965	17844.9
727.296	17745.96
727.628	17742.55
727.959	17663.43
728.29	17729.61
728.621	17677.68
728.952	17704.43
729.284	17514.5
729.615	17578.54
729.945	17548.83
730.276	17518.5
730.607	17570.89
730.938	17580.98
731.269	17536.33
731.599	17515.45
731.93	17550.73
732.261	17405.04
732.591	17351.7
732.922	17283.44
733.252	17128.12
733.582	17057.46
733.912	17063.43
734.243	17123.96
734.573	17134.13
734.903	17260.27
735.233	17093.31
735.563	17114.44
735.893	17099.62
736.223	17060.65
736.552	17066.61
736.882	16951.15
737.212	16861.09
737.541	16914.78
737.871	17003
738.2	16894.43
738.53	16626.05
738.859	16454.08
739.188	16360.74
739.518	16413.7
739.847	16518.5
740.176	16541.67
740.505	16602.5
740.834	16542.07
741.163	16451.93
741.492	16342.28
741.821	16269.91
742.15	16154.12
742.478	16143.36
742.807	16042.79
743.136	16148.75
743.464	16055.02
743.793	15949.93
744.121	15924.02
744.449	15907.24
744.778	16065.08
745.106	16255.79
745.434	16148.08
745.762	15797.14
746.09	15623.19
746.418	15575.87
746.746	15512.4
747.074	15408.38
747.402	15436.02
747.73	15355.88
748.057	15414.51
748.385	15313.18
748.712	15284.42
749.04	15283.16
749.367	15270.32
749.695	15218.86
750.022	15363.24
750.349	15303.03
750.677	15318.57
751.004	15267.16
751.331	15180.08
751.658	15205
751.985	15100.92
752.312	14967.76
752.639	14949.64
752.966	14906.73
753.292	14772.96
753.619	14894.78
753.946	14870.48
754.272	14718.49
754.599	14713.74
754.925	14665.07
755.251	14633.45
755.578	14641.27
755.904	14563.31
756.23	14439.61
756.556	14499.33
756.882	14701.74
757.208	14670
757.534	14561.85
757.86	14466.56
758.186	14500.5
758.512	14437.58
758.838	14348.53
759.163	14271.4
759.489	14248.1
759.814	14131.02
760.14	14118.35
760.465	14126.13
760.791	13997.06
761.116	13968.59
761.441	13902.63
761.766	13941.84
762.092	13840.07
762.417	13793.86
762.742	13808.72
763.066	13746.7
763.391	13710.06
763.716	13710.56
764.041	13718.63
764.366	13643.39
764.69	13586.11
765.015	13601.52
765.339	13624.59
765.664	13625.96
765.988	13592.63
766.312	13504.25
766.637	13357.35
766.961	13347.43
767.285	13301.61
767.609	13103.73
767.933	12956.69
768.257	12999.3
768.581	12969.79
768.905	13161.87
769.229	13225.05
769.552	13195.08
769.876	13320.1
770.2	13214.01
770.523	13159.64
770.847	13028.4
771.17	12966.13
771.493	12967.72
771.817	12934.35
772.14	12746.73
772.463	12669.44
772.786	12711.79
773.109	12656.57
773.432	12709.14
773.755	12574.53
774.078	12418.51
774.401	12295.38
774.724	12221.14
775.046	12254.26
775.369	12173.77
775.692	12112.96
776.014	12069.93
776.336	11959.4
776.659	11911.62
776.981	11920.49
777.303	11885.75
777.626	11833.09
777.948	11795.59
778.27	11853.16
778.592	11887.71
778.914	11888.57
779.236	11797.53
779.557	11800.38
779.879	11887.86
780.201	11818.19
780.523	11828
780.844	11763.12
781.166	11799.42
781.487	11809.9
781.809	11837.83
782.13	11919.86
782.451	11904.62
782.772	11987.2
783.094	11830.36
783.415	11800.84
783.736	11732.91
784.057	11757.74
784.378	11806.64
784.698	11774.75
785.019	11783.98
785.34	11627.42
785.661	11790.67
785.981	11909.67
786.302	12015.49
786.622	12063.89
786.943	12065.63
787.263	11866.12
787.583	11813.74
787.903	11865.78
788.224	11929.01
788.544	12089.71
788.864	12070.99
789.184	12159.52
789.504	12062.12
789.824	12030.3
790.143	11994.74
790.463	11903.55
790.783	11823.92
791.102	11817.49
791.422	11882.71
791.741	11931.55
792.061	11997.15
792.38	12044
792.699	11913.47
793.019	11888.55
793.338	11829.46
793.657	11854.08
793.976	12041.83
794.295	12028.56
794.614	12063.11
794.933	11936.39
795.252	11902.11
795.57	11874.36
795.889	11911.47
796.208	11902.04
796.526	11672.22
796.845	11623.79
797.163	11493.69
797.482	11498.25
797.8	11569.8
798.118	11577.19
798.436	11624.32
798.754	11541.21
799.073	11413.07
799.391	11394.19
799.708	11423.46
800.026	11490.44
800.344	11507.41
800.662	11501.6
800.98	11365.84
801.297	11281.35
801.615	11264.62
801.932	11267.77
802.25	11194.62
802.567	11108.22
802.884	11123.09
803.202	11052.63
803.519	10971.69
803.836	11050.03
804.153	11095.93
804.47	11127.4
804.787	10946.36
805.104	10797.87
805.421	10819.54
805.737	10843.36
806.054	10864.47
806.371	10954.59
806.687	10987.21
807.004	10910.08
807.32	10895.65
807.637	10860.58
807.953	10821.07
808.269	10803.39
808.585	10786.49
808.902	10594.43
809.218	10530.9
809.534	10527.21
809.85	10503.2
810.165	10454.85
810.481	10395.44
810.797	10251.1
811.113	10198.84
811.428	10182.74
811.744	10178.18
812.059	10185.04
812.375	10172.35
812.69	10081.43
813.006	9940.22
813.321	9917.9
813.636	9949.71
813.951	10052.66
814.266	10085.6
814.581	10031.47
814.896	9932.1
815.211	9812.13
815.526	9724.18
815.841	9686.52
816.155	9762.42
816.47	9793.4
816.784	9806.72
817.099	9743.77
817.413	9670.97
817.728	9665.92
818.042	9629.63
818.356	9632.26
818.67	9584.38
818.985	9541.3
819.299	9461.17
819.613	9437.48
819.926	9297.55
820.24	9308.82
820.554	9384.69
820.868	9443.79
821.182	9360.09
821.495	9340.6
821.809	9209.17
822.122	9225.01
822.436	9330.21
822.749	9321.2
823.062	9247.52
823.376	9136.48
823.689	8999.12
824.002	8977.14
824.315	8944.7
824.628	9001.96
824.941	9017.88
825.254	8917.71
825.566	8784.8
825.879	8816.19
826.192	8809.03
826.504	8786.3
826.817	8843.65
827.129	8902.45
827.442	8779.8
827.754	8655.14
828.066	8521.69
828.379	8387.97
828.691	8409.75
829.003	8408.41
829.315	8510.92
829.627	8556.74
829.939	8525.22
830.251	8526.58
830.562	8457.33
830.874	8468.59
831.186	8495.9
831.497	8582.11
831.809	8545.79
832.12	8474.8
832.432	8329.49
832.743	8238.74
833.054	8191.28
833.365	8189
833.676	8191.51
833.988	8182.69
834.299	8138.47
834.61	8104.97
834.92	8056.35
835.231	8067.72
835.542	8074.26
835.853	8063.4
836.163	8062.38
836.474	7980.25
836.784	7872.94
837.095	7803.43
837.405	7745.21
837.715	7754.48
838.026	7804.83
838.336	7841.69
838.646	7831.57
838.956	7714.48
839.266	7668.87
839.576	7598.62
839.886	7594.92
840.195	7592.77
840.505	7530.57
840.815	7462.2
841.124	7418.17
841.434	7416.61
841.743	7396.53
842.053	7456.72
842.362	7443.84
842.671	7444.34
842.981	7401.5
843.29	7284.31
843.599	7241.4
843.908	7184.71
844.217	7159.16
844.526	7234.22
844.835	7230.5
845.143	7191.12
845.452	7118.52
845.761	7057.88
846.069	6946.61
846.378	7006.96
846.686	7005.54
846.995	7023.87
847.303	7016.01
847.611	7031.71
847.919	6947.86
848.227	6891.12
848.535	6812.16
848.843	6797.91
849.151	6820.88
849.459	6936.92
849.767	6956.39
850.075	6930.48
850.382	6819.28
850.69	6732.27
850.998	6696
851.305	6702.45
851.612	6757.4
851.92	6781.8
852.227	6758.17
852.534	6669.98
852.841	6583.92
853.148	6515.06
853.455	6559.52
853.762	6576.25
854.069	6588.52
854.376	6534.93
854.683	6483.89
854.99	6391.78
855.296	6327.56
855.603	6274.55
855.909	6244
856.216	6241.19
856.522	6237.92
856.828	6207.72
857.135	6151.53
857.441	6119.87
857.747	6058.16
858.053	6075.23
858.359	6026.85
858.665	6063.32
858.971	6062.2
859.276	6047.58
859.582	5996.87
859.888	5942.66
860.193	5860.16
860.499	5850.98
860.804	5896.33
861.11	5913.91
861.415	5929.15
861.72	5910.75
862.026	5822.16
862.331	5772.01
862.636	5734.08
862.941	5712.84
863.246	5719.45
863.551	5747.79
863.855	5740.55
864.16	5709.36
864.465	5628.98
864.769	5554.38
865.074	5489.75
865.378	5449.17
865.683	5430.87
865.987	5494.81
866.291	5483.66
866.596	5496.83
866.9	5427.82
867.204	5385.71
867.508	5336.22
867.812	5326.94
868.116	5347.9
868.42	5327.33
868.723	5297.93
869.027	5268.22
869.331	5182.05
869.634	5130.72
869.938	5091.35
870.241	5107.47
870.544	5096.83
870.848	5110.33
871.151	5113.18
871.454	5088.21
871.757	5072.39
872.06	5032.93
872.363	4975.95
872.666	4964.76
872.969	4939.38
873.272	4941.89
873.574	4949.08
873.877	4934.89
874.18	4893.25
874.482	4838.84
874.785	4832.67
875.087	4788.06
875.389	4793.23
875.692	4772.16
875.994	4780.76
876.296	4776.09
876.598	4732.51
876.9	4663.71
877.202	4610.73
877.504	4600.75
877.805	4621.63
878.107	4646.95
878.409	4618.87
878.71	4623.86
879.012	4599.64
879.313	4522.12
879.615	4481.28
879.916	4403.83
880.217	4387.43
880.518	4393.46
880.82	4429.8
881.121	4404.37
881.422	4366.04
881.723	4302.67
882.023	4243.15
882.324	4234.01
882.625	4199.18
882.926	4198.53
883.226	4234.79
883.527	4197.99
883.827	4192.03
884.128	4163.84
884.428	4137.85
884.728	4069.59
885.028	4048.97
885.328	4056.55
885.629	4047.88
885.929	4054.2
886.228	4032.34
886.528	3969.78
886.828	3925.52
887.128	3885.75
887.427	3833.93
887.727	3812.89
888.027	3789
888.326	3794.58
888.625	3809.85
888.925	3778.04
889.224	3770.57
889.523	3726.53
889.822	3688.99
890.121	3666.41
890.42	3655.87
890.719	3672.21
891.018	3652.55
891.317	3681.01
891.616	3678.73
891.914	3654.14
892.213	3632.91
892.512	3614.55
892.81	3612.48
893.108	3620.19
893.407	3656.42
893.705	3692.02
894.003	3692.32
894.301	3662.17
894.599	3610.98
894.897	3565.82
895.195	3524.46
895.493	3498.14
895.791	3527.48
896.089	3536.14
896.386	3508.6
896.684	3492.15
896.981	3474.39
897.279	3461.8
897.576	3489.34
897.874	3464.88
898.171	3480.87
898.468	3495.54
898.765	3509.53
899.062	3556.95
899.359	3575.43
899.656	3572.74
899.953	3556.16
900.25	3524.95
900.547	3484.85
900.843	3467.52
901.14	3479.67
901.436	3500.04
901.733	3512.03
902.029	3498.52
902.325	3475.3
902.622	3419.21
902.918	3403.3
903.214	3384.43
903.51	3358.28
903.806	3374.68
904.102	3390.3
904.398	3423.26
904.694	3436.69
904.989	3468.26
905.285	3427.25
905.581	3378.72
905.876	3365.84
906.171	3361.45
906.467	3370.91
906.762	3390.61
907.057	3379.09
907.353	3382.72
907.648	3364.34
907.943	3345.17
908.238	3308.82
908.533	3264.94
908.827	3252.29
909.122	3251.51
909.417	3254.84
909.711	3263.42
910.006	3240.96
910.301	3204.31
910.595	3200.78
910.889	3197.1
911.184	3152.88
911.478	3158.37
911.772	3186.06
912.066	3191.27
912.36	3193
912.654	3170.8
912.948	3153.2
913.242	3155.73
913.536	3102.77
913.829	3059.93
914.123	3027.91
914.416	2985.64
914.71	2986.95
915.003	3008.9
915.297	3016.32
915.59	3018.69
915.883	3021.93
916.176	3010.44
916.469	2980.22
916.762	2951.73
917.055	2914.68
917.348	2895.81
917.641	2914.49
917.934	2915.54
918.226	2902.63
918.519	2878.24
918.811	2849.27
919.104	2814.98
919.396	2767.46
919.689	2729.23
919.981	2702.72
920.273	2689.32
920.565	2696.75
920.857	2693.21
921.149	2701.67
921.441	2701.56
921.733	2687.9
922.025	2637.62
922.316	2594.2
922.608	2549.41
922.9	2516.41
923.191	2498.88
923.483	2515.09
923.774	2513.77
924.065	2527.3
924.357	2524.53
924.648	2485.65
924.939	2453.91
925.23	2413.98
925.521	2384.14
925.812	2376.08
926.102	2383.09
926.393	2391.47
926.684	2394.87
926.975	2380.17
927.265	2360.65
927.556	2339.38
927.846	2303.58
928.136	2267.15
928.427	2241.29
928.717	2231.82
929.007	2226.92
929.297	2216.58
929.587	2207.38
929.877	2206.38
930.167	2203.14
930.457	2180.54
930.746	2148.28
931.036	2120.74
931.325	2096.4
931.615	2074.38
931.904	2071.66
932.194	2054.11
932.483	2052.01
932.772	2056.58
933.062	2056.25
933.351	2039.87
933.64	2001.1
933.929	1985.2
934.218	1957.7
934.506	1937.24
934.795	1923.64
935.084	1914.91
935.372	1908.99
935.661	1899.9
935.949	1885.86
936.238	1878.96
936.526	1846.45
936.815	1818.94
937.103	1799.78
937.391	1783.24
937.679	1770.82
937.967	1767.5
938.255	1758.64
938.543	1754.19
938.831	1734.61
939.118	1725.61
939.406	1709.74
939.693	1696.53
939.981	1679.77
940.268	1677.77
940.556	1672.45
940.843	1672.74
941.13	1664.8
941.418	1655
941.705	1634.54
941.992	1606.12
942.279	1580.72
942.566	1556.96
942.852	1534.02
943.139	1518.87
943.426	1504.36
943.712	1498.88
943.999	1499.03
944.285	1496.89
944.572	1485.47
944.858	1477.47
945.144	1465.57
945.431	1445.36
945.717	1430.35
946.003	1428.56
946.289	1413.56
946.575	1404.66
946.861	1398.29
947.146	1394.37
947.432	1389.39
947.718	1372.34
948.003	1358.6
948.289	1340.66
948.574	1312.5
948.86	1292.43
949.145	1281.98
949.43	1270.33
949.715	1261.28
950	1247.79
950.285	1238.11
950.57	1238.72
950.855	1228.71
951.14	1218.59
951.425	1205.85
951.709	1195.58
951.994	1185.1
952.278	1181.33
952.563	1173.39
952.847	1166.88
953.132	1164.75
953.416	1169.52
953.7	1163.96
953.984	1163.41
954.268	1148.68
954.552	1131.78
954.836	1111.92
955.12	1097.86
955.404	1084.57
955.687	1075.53
955.971	1068.58
956.254	1065.63
956.538	1059.22
956.821	1054.58
957.105	1041.97
957.388	1039.86
957.671	1025.66
957.954	1020.91
958.237	1011.92
958.52	1002.81
958.803	994.03
959.086	986.14
959.369	979.65
959.652	971.63
959.934	968.09
960.217	962.22
960.499	957.61
960.782	946.13
961.064	931.79
961.346	922.35
961.629	909.12
961.911	894.08
962.193	887.62
962.475	882.64
962.757	876.52
963.039	877.02
963.32	871.12
963.602	867.75
963.884	861.18
964.165	856.5
964.447	856.18
964.728	843.88
965.01	839.34
965.291	829.37
965.572	822.92
965.853	819.81
966.134	811.9
966.415	807.67
966.696	800.57
966.977	790.47
967.258	784.33
967.539	771.06
967.819	764.61
968.1	759.23
968.38	753.34
968.661	748.14
968.941	741.99
969.222	743.36
969.502	737.78
969.782	736.47
970.062	730.22
970.342	721.8
970.622	713.77
970.902	705.84
971.182	694.93
971.462	691.06
971.741	688.02
972.021	681.34
972.3	681.44
972.58	675.69
972.859	671.08
973.138	666.99
973.418	658.98
973.697	651.45
973.976	645.93
974.255	635.94
974.534	628.11
974.813	622.48
975.092	618.34
975.37	613.74
975.649	613.13
975.928	612.88
976.206	610.41
976.485	609.6
976.763	605.83
977.041	597.85
977.32	594.98
977.598	588.09
977.876	585.59
978.154	584.48
978.432	583.73
978.71	580.09
978.988	574.91
979.265	570.82
979.543	568.7
979.821	561.36
980.098	558.94
980.376	554.2
980.653	554.33
980.93	548.74
981.208	544.42
981.485	540.45
981.762	536.88
982.039	533.62
982.316	528.73
982.593	529.01
982.87	524.63
983.146	519.37
983.423	514.68
983.7	512.87
983.976	509.9
984.253	508.52
984.529	506.38
984.805	499.18
985.082	497.32
985.358	493.31
985.634	494.63
985.91	489.15
986.186	486.82
986.462	483.06
986.738	478.4
987.013	477.56
987.289	476.19
987.565	474.21
987.84	469.92
988.116	467.24
988.391	468.21
988.666	462.94
988.942	459.77
989.217	460.26
989.492	457.64
989.767	454.24
990.042	453.8
990.317	449.18
990.592	448.79
990.866	447.84
991.141	446.63
991.416	445.29
991.69	440.46
991.964	438.43
992.239	434.46
992.513	436.09
992.787	433.85
993.062	431.82
993.336	429.55
993.61	427.35
993.884	427.13
994.158	423.24
994.431	423.19
994.705	421.3
994.979	421.13
995.252	418.68
995.526	418.64
995.799	413.78
996.073	413.57
996.346	412.4
996.619	412.4
996.892	410.11
997.165	408.78
997.438	408.23
997.711	407.72
997.984	408.3
998.257	405.12
998.53	402.36
998.802	403.15
999.075	401.11
999.347	400.62
999.62	397.68
999.892	396.83
1000.165	396.84
1000.437	394.88
1000.709	395.27
1000.981	393.88
1001.253	392.12
1001.525	390.88
1001.797	389.11
1002.068	388.74
1002.34	389.17
1002.612	386.99
1002.883	385.56
1003.155	383.71
1003.426	385.38
1003.698	385.75
1003.969	382.5
1004.24	380.88
1004.511	383.54
1004.782	382.93
1005.053	380.68
1005.324	378.99
1005.595	379.97
1005.866	379.77
1006.136	378.96
1006.407	375.97
1006.678	377.13
1006.948	377.98
1007.218	377.53
1007.489	376.37
1007.759	376.35
1008.029	376.89
1008.299	373.53
1008.569	374.78
1008.839	372.9
1009.109	374.38
1009.379	371.74
1009.649	371.25
1009.918	372.54
1010.188	370.51
1010.458	370.96
1010.727	370.04
1010.996	368.93
1011.266	368.17
1011.535	368.57
1011.804	369.02
1012.073	369.24
1012.342	367.64
1012.611	367.74
1012.88	367.85
1013.149	368.36
1013.417	366.7
1013.686	365.19
1013.955	366.09
1014.223	366.88
1014.492	366.34
1014.76	365.49
1015.028	365.62
1015.296	364.39
1015.565	363.97
1015.833	367.04
1016.101	363.39
1016.368	363.35
1016.636	362.58
1016.904	364.61
1017.172	361.21
1017.439	362.78
1017.707	362.4
1017.974	362.13
1018.242	363.19
1018.509	362.58
1018.776	363.14
1019.044	362.11
1019.311	361.47
1019.578	362
1019.845	360.1
1020.112	362.49
1020.378	362.49
1020.645	362.49
